Data from light_USB4E013581_00004.txt Node
Date: Wed May 08 15:04:40 EDT 2019
User: dh1006
Spectrometer: USB4E01358
Autoset integration time: false
Trigger mode: 4
Integration Time (sec): 2.925000E-2
Scans to average: 1
Electric dark correction enabled: true
Nonlinearity correction enabled: false
Boxcar width: 0
Stray light correction enabled: false
XAxis mode: Wavelengths
Stop averaging: false
Number of Pixels in Spectrum: 3648
>>>>>Begin Spectral Data<<<<<
176.727	-40.8
176.966	-40.8
177.205	-40.8
177.444	-8.03
177.683	-18.27
177.922	4.25
178.161	-5.99
178.4	32.93
178.638	24.73
178.877	53.4
179.116	6.3
179.355	32.93
179.593	0.16
179.832	123.04
180.071	55.45
180.309	20.64
180.548	71.84
180.786	-40.8
181.025	41.12
181.263	2.21
181.502	131.23
181.74	94.36
181.979	43.16
182.217	86.17
182.456	61.6
182.694	67.74
182.932	82.08
183.17	53.4
183.409	96.41
183.647	92.32
183.885	-28.51
184.123	59.55
184.361	116.89
184.6	61.6
184.838	71.84
185.076	32.93
185.314	90.27
185.552	37.02
185.79	24.73
186.028	16.54
186.266	41.12
186.503	59.55
186.741	43.16
186.979	82.08
187.217	20.64
187.455	-3.94
187.693	37.02
187.93	75.93
188.168	141.47
188.406	75.93
188.643	37.02
188.881	114.84
189.119	65.69
189.356	24.73
189.594	16.54
189.831	59.55
190.069	98.46
190.306	-3.94
190.543	12.45
190.781	32.93
191.018	24.73
191.256	84.12
191.493	98.46
191.73	61.6
191.967	82.08
192.205	82.08
192.442	-32.61
192.679	32.93
192.916	77.98
193.153	92.32
193.39	65.69
193.628	73.88
193.865	88.22
194.102	61.6
194.339	55.45
194.576	41.12
194.813	49.31
195.049	59.55
195.286	123.04
195.523	49.31
195.76	32.93
195.997	94.36
196.234	84.12
196.47	92.32
196.707	69.79
196.944	43.16
197.18	77.98
197.417	57.5
197.654	98.46
197.89	73.88
198.127	125.08
198.363	49.31
198.6	24.73
198.836	75.93
199.073	86.17
199.309	49.31
199.546	57.5
199.782	82.08
200.018	65.69
200.255	34.97
200.491	65.69
200.727	98.46
200.963	77.98
201.199	41.12
201.436	53.4
201.672	75.93
201.908	102.56
202.144	73.88
202.38	114.84
202.616	141.47
202.852	116.89
203.088	49.31
203.324	114.84
203.56	-24.42
203.796	94.36
204.032	4.25
204.268	71.84
204.503	123.04
204.739	26.78
204.975	67.74
205.211	53.4
205.446	57.5
205.682	18.59
205.918	12.45
206.153	82.08
206.389	24.73
206.625	65.69
206.86	-18.27
207.096	59.55
207.331	34.97
207.567	82.08
207.802	8.35
208.037	55.45
208.273	49.31
208.508	94.36
208.744	75.93
208.979	2.21
209.214	10.4
209.449	16.54
209.685	98.46
209.92	49.31
210.155	141.47
210.39	69.79
210.625	100.51
210.86	26.78
211.095	84.12
211.33	41.12
211.565	98.46
211.8	24.73
212.035	100.51
212.27	61.6
212.505	104.6
212.74	90.27
212.975	73.88
213.21	86.17
213.444	12.45
213.679	53.4
213.914	55.45
214.149	82.08
214.383	30.88
214.618	61.6
214.853	51.36
215.087	100.51
215.322	61.6
215.556	75.93
215.791	43.16
216.025	114.84
216.26	65.69
216.494	18.59
216.729	53.4
216.963	-14.18
217.197	37.02
217.432	53.4
217.666	34.97
217.9	98.46
218.135	110.75
218.369	75.93
218.603	73.88
218.837	43.16
219.071	43.16
219.306	12.45
219.54	0.16
219.774	34.97
220.008	18.59
220.242	18.59
220.476	18.59
220.71	82.08
220.944	110.75
221.178	90.27
221.411	41.12
221.645	39.07
221.879	82.08
222.113	86.17
222.347	18.59
222.58	61.6
222.814	43.16
223.048	110.75
223.281	51.36
223.515	110.75
223.749	53.4
223.982	10.4
224.216	69.79
224.449	110.75
224.683	20.64
224.916	114.84
225.15	106.65
225.383	84.12
225.617	55.45
225.85	67.74
226.083	98.46
226.317	16.54
226.55	67.74
226.783	73.88
227.016	102.56
227.25	67.74
227.483	45.21
227.716	123.04
227.949	34.97
228.182	106.65
228.415	61.6
228.648	145.56
228.881	77.98
229.114	88.22
229.347	53.4
229.58	-3.94
229.813	98.46
230.046	116.89
230.279	49.31
230.512	28.83
230.745	164
230.977	67.74
231.21	104.6
231.443	67.74
231.675	143.52
231.908	125.08
232.141	125.08
232.373	98.46
232.606	57.5
232.839	98.46
233.071	4.25
233.304	26.78
233.536	26.78
233.769	127.13
234.001	71.84
234.233	84.12
234.466	61.6
234.698	133.28
234.93	118.94
235.163	100.51
235.395	26.78
235.627	106.65
235.86	110.75
236.092	98.46
236.324	22.69
236.556	135.32
236.788	92.32
237.02	98.46
237.252	18.59
237.484	139.42
237.716	49.31
237.948	98.46
238.18	164
238.412	45.21
238.644	65.69
238.876	59.55
239.108	34.97
239.34	75.93
239.571	118.94
239.803	53.4
240.035	98.46
240.267	133.28
240.498	51.36
240.73	77.98
240.962	77.98
241.193	166.04
241.425	37.02
241.656	106.65
241.888	90.27
242.119	88.22
242.351	26.78
242.582	106.65
242.814	32.93
243.045	77.98
243.277	123.04
243.508	24.73
243.739	55.45
243.971	114.84
244.202	133.28
244.433	110.75
244.664	14.49
244.896	24.73
245.127	49.31
245.358	94.36
245.589	102.56
245.82	-12.13
246.051	110.75
246.282	41.12
246.513	65.69
246.744	32.93
246.975	77.98
247.206	110.75
247.437	131.23
247.668	75.93
247.899	-3.94
248.129	123.04
248.36	67.74
248.591	20.64
248.822	51.36
249.052	73.88
249.283	82.08
249.514	69.79
249.744	57.5
249.975	151.71
250.206	49.31
250.436	59.55
250.667	59.55
250.897	39.07
251.128	41.12
251.358	65.69
251.589	-5.99
251.819	82.08
252.049	90.27
252.28	75.93
252.51	22.69
252.74	65.69
252.971	0.16
253.201	80.03
253.431	84.12
253.661	20.64
253.891	98.46
254.121	90.27
254.352	75.93
254.582	65.69
254.812	16.54
255.042	20.64
255.272	49.31
255.502	12.45
255.732	106.65
255.962	59.55
256.192	26.78
256.421	84.12
256.651	75.93
256.881	104.6
257.111	75.93
257.341	102.56
257.57	34.97
257.8	24.73
258.03	98.46
258.259	161.95
258.489	131.23
258.719	53.4
258.948	98.46
259.178	110.75
259.407	86.17
259.637	77.98
259.866	47.26
260.096	65.69
260.325	34.97
260.555	96.41
260.784	75.93
261.013	65.69
261.243	49.31
261.472	16.54
261.701	123.04
261.931	26.78
262.16	143.52
262.389	24.73
262.618	123.04
262.847	123.04
263.076	98.46
263.305	141.47
263.535	51.36
263.764	133.28
263.993	-24.42
264.222	114.84
264.451	100.51
264.679	-3.94
264.908	39.07
265.137	34.97
265.366	57.5
265.595	118.94
265.824	73.88
266.053	114.84
266.281	90.27
266.51	41.12
266.739	100.51
266.967	39.07
267.196	43.16
267.425	69.79
267.653	26.78
267.882	75.93
268.11	41.12
268.339	34.97
268.567	41.12
268.796	53.4
269.024	125.08
269.253	41.12
269.481	22.69
269.709	24.73
269.938	145.56
270.166	182.43
270.394	133.28
270.623	116.89
270.851	135.32
271.079	116.89
271.307	92.32
271.535	8.35
271.764	49.31
271.992	172.19
272.22	90.27
272.448	53.4
272.676	61.6
272.904	59.55
273.132	65.69
273.36	20.64
273.588	123.04
273.816	75.93
274.043	67.74
274.271	127.13
274.499	32.93
274.727	-12.13
274.955	77.98
275.182	98.46
275.41	75.93
275.638	110.75
275.866	114.84
276.093	131.23
276.321	41.12
276.548	45.21
276.776	0.16
277.003	90.27
277.231	34.97
277.458	61.6
277.686	26.78
277.913	86.17
278.141	84.12
278.368	41.12
278.595	192.67
278.823	82.08
279.05	69.79
279.277	90.27
279.505	8.35
279.732	65.69
279.959	139.42
280.186	73.88
280.413	127.13
280.641	96.41
280.868	84.12
281.095	90.27
281.322	53.4
281.549	24.73
281.776	98.46
282.003	71.84
282.23	123.04
282.457	14.49
282.683	114.84
282.91	92.32
283.137	34.97
283.364	133.28
283.591	14.49
283.818	77.98
284.044	73.88
284.271	123.04
284.498	112.8
284.724	63.64
284.951	106.65
285.178	61.6
285.404	86.17
285.631	34.97
285.857	102.56
286.084	59.55
286.31	96.41
286.537	71.84
286.763	49.31
286.99	108.7
287.216	100.51
287.442	49.31
287.669	88.22
287.895	94.36
288.121	108.7
288.347	100.51
288.574	65.69
288.8	51.36
289.026	77.98
289.252	102.56
289.478	67.74
289.704	90.27
289.931	57.5
290.157	100.51
290.383	102.56
290.609	53.4
290.835	75.93
291.06	149.66
291.286	86.17
291.512	143.52
291.738	149.66
291.964	75.93
292.19	28.83
292.416	123.04
292.641	59.55
292.867	67.74
293.093	139.42
293.319	75.93
293.544	67.74
293.77	55.45
293.995	125.08
294.221	143.52
294.447	92.32
294.672	65.69
294.898	73.88
295.123	28.83
295.349	34.97
295.574	41.12
295.799	75.93
296.025	207
296.25	65.69
296.476	118.94
296.701	133.28
296.926	67.74
297.151	77.98
297.377	94.36
297.602	75.93
297.827	94.36
298.052	84.12
298.277	88.22
298.502	49.31
298.727	84.12
298.953	84.12
299.178	139.42
299.403	84.12
299.628	123.04
299.852	151.71
300.077	59.55
300.302	59.55
300.527	88.22
300.752	90.27
300.977	67.74
301.202	114.84
301.426	133.28
301.651	86.17
301.876	84.12
302.101	106.65
302.325	59.55
302.55	73.88
302.775	127.13
302.999	12.45
303.224	141.47
303.448	143.52
303.673	20.64
303.897	125.08
304.122	41.12
304.346	24.73
304.571	82.08
304.795	94.36
305.019	102.56
305.244	61.6
305.468	129.18
305.692	86.17
305.917	65.69
306.141	61.6
306.365	47.26
306.589	100.51
306.813	84.12
307.038	69.79
307.262	92.32
307.486	108.7
307.71	57.5
307.934	59.55
308.158	47.26
308.382	63.64
308.606	116.89
308.83	47.26
309.054	57.5
309.278	92.32
309.502	106.65
309.725	73.88
309.949	127.13
310.173	131.23
310.397	77.98
310.62	114.84
310.844	104.6
311.068	98.46
311.292	-3.94
311.515	106.65
311.739	200.86
311.962	131.23
312.186	137.37
312.41	108.7
312.633	61.6
312.857	28.83
313.08	127.13
313.303	88.22
313.527	110.75
313.75	180.38
313.974	28.83
314.197	71.84
314.42	77.98
314.644	92.32
314.867	108.7
315.09	43.16
315.313	106.65
315.536	114.84
315.76	65.69
315.983	86.17
316.206	118.94
316.429	98.46
316.652	127.13
316.875	49.31
317.098	63.64
317.321	73.88
317.544	10.4
317.767	90.27
317.99	59.55
318.213	73.88
318.436	65.69
318.658	4.25
318.881	98.46
319.104	125.08
319.327	102.56
319.55	123.04
319.772	86.17
319.995	75.93
320.218	143.52
320.44	69.79
320.663	120.99
320.885	108.7
321.108	16.54
321.331	71.84
321.553	110.75
321.776	10.4
321.998	24.73
322.22	98.46
322.443	155.8
322.665	133.28
322.888	110.75
323.11	65.69
323.332	49.31
323.555	110.75
323.777	110.75
323.999	139.42
324.221	71.84
324.443	106.65
324.666	110.75
324.888	77.98
325.11	102.56
325.332	94.36
325.554	100.51
325.776	114.84
325.998	114.84
326.22	77.98
326.442	75.93
326.664	65.69
326.886	49.31
327.108	10.4
327.33	108.7
327.551	53.4
327.773	100.51
327.995	180.38
328.217	98.46
328.439	92.32
328.66	75.93
328.882	45.21
329.104	174.23
329.325	125.08
329.547	67.74
329.769	77.98
329.99	139.42
330.212	26.78
330.433	125.08
330.655	86.17
330.876	135.32
331.098	53.4
331.319	65.69
331.54	90.27
331.762	123.04
331.983	53.4
332.204	47.26
332.426	129.18
332.647	114.84
332.868	12.45
333.089	127.13
333.311	106.65
333.532	82.08
333.753	-1.89
333.974	94.36
334.195	57.5
334.416	108.7
334.637	8.35
334.858	118.94
335.079	131.23
335.3	67.74
335.521	43.16
335.742	51.36
335.963	22.69
336.184	86.17
336.405	80.03
336.626	100.51
336.846	145.56
337.067	98.46
337.288	41.12
337.509	75.93
337.729	137.37
337.95	49.31
338.171	118.94
338.391	112.8
338.612	118.94
338.833	102.56
339.053	61.6
339.274	98.46
339.494	82.08
339.715	131.23
339.935	94.36
340.156	86.17
340.376	82.08
340.596	94.36
340.817	28.83
341.037	104.6
341.257	65.69
341.478	69.79
341.698	57.5
341.918	28.83
342.138	71.84
342.359	151.71
342.579	131.23
342.799	102.56
343.019	139.42
343.239	10.4
343.459	92.32
343.679	110.75
343.899	73.88
344.119	90.27
344.339	92.32
344.559	51.36
344.779	106.65
344.999	53.4
345.219	131.23
345.439	125.08
345.658	131.23
345.878	82.08
346.098	59.55
346.318	57.5
346.537	49.31
346.757	147.61
346.977	131.23
347.196	141.47
347.416	118.94
347.636	102.56
347.855	94.36
348.075	139.42
348.294	98.46
348.514	77.98
348.733	98.46
348.953	98.46
349.172	57.5
349.392	166.04
349.611	65.69
349.83	98.46
350.05	49.31
350.269	41.12
350.488	34.97
350.707	57.5
350.927	114.84
351.146	94.36
351.365	39.07
351.584	65.69
351.803	164
352.023	86.17
352.242	86.17
352.461	82.08
352.68	82.08
352.899	98.46
353.118	114.84
353.337	141.47
353.556	106.65
353.775	67.74
353.993	90.27
354.212	77.98
354.431	108.7
354.65	90.27
354.869	104.6
355.088	75.93
355.306	57.5
355.525	102.56
355.744	45.21
355.962	102.56
356.181	71.84
356.4	84.12
356.618	57.5
356.837	114.84
357.055	24.73
357.274	51.36
357.492	106.65
357.711	118.94
357.929	73.88
358.148	98.46
358.366	112.8
358.585	102.56
358.803	100.51
359.021	106.65
359.24	141.47
359.458	28.83
359.676	129.18
359.894	51.36
360.113	90.27
360.331	28.83
360.549	120.99
360.767	157.85
360.985	65.69
361.203	12.45
361.421	127.13
361.639	120.99
361.857	84.12
362.075	57.5
362.293	172.19
362.511	147.61
362.729	86.17
362.947	164
363.165	131.23
363.383	67.74
363.601	71.84
363.819	92.32
364.036	82.08
364.254	69.79
364.472	92.32
364.689	135.32
364.907	198.81
365.125	24.73
365.342	88.22
365.56	49.31
365.778	204.95
365.995	147.61
366.213	131.23
366.43	159.9
366.648	73.88
366.865	172.19
367.083	139.42
367.3	172.19
367.517	135.32
367.735	110.75
367.952	108.7
368.17	147.61
368.387	114.84
368.604	129.18
368.821	28.83
369.039	137.37
369.256	37.02
369.473	108.7
369.69	116.89
369.907	106.65
370.124	80.03
370.341	0.16
370.558	49.31
370.776	131.23
370.993	149.66
371.21	106.65
371.426	127.13
371.643	102.56
371.86	75.93
372.077	159.9
372.294	114.84
372.511	155.8
372.728	139.42
372.945	92.32
373.161	75.93
373.378	120.99
373.595	55.45
373.811	127.13
374.028	102.56
374.245	106.65
374.461	57.5
374.678	104.6
374.895	92.32
375.111	118.94
375.328	116.89
375.544	90.27
375.761	123.04
375.977	98.46
376.194	96.41
376.41	149.66
376.626	133.28
376.843	137.37
377.059	147.61
377.275	131.23
377.492	110.75
377.708	114.84
377.924	145.56
378.14	131.23
378.357	223.39
378.573	127.13
378.789	10.4
379.005	159.9
379.221	114.84
379.437	118.94
379.653	168.09
379.869	137.37
380.085	123.04
380.301	155.8
380.517	149.66
380.733	32.93
380.949	182.43
381.165	127.13
381.381	190.62
381.597	164
381.813	69.79
382.028	184.47
382.244	123.04
382.46	149.66
382.676	200.86
382.891	155.8
383.107	92.32
383.323	131.23
383.538	98.46
383.754	147.61
383.969	159.9
384.185	155.8
384.4	86.17
384.616	172.19
384.831	114.84
385.047	98.46
385.262	114.84
385.478	174.23
385.693	127.13
385.909	196.76
386.124	192.67
386.339	172.19
386.554	198.81
386.77	182.43
386.985	190.62
387.2	233.63
387.415	135.32
387.631	225.43
387.846	172.19
388.061	170.14
388.276	204.95
388.491	100.51
388.706	252.06
388.921	164
389.136	172.19
389.351	274.59
389.566	200.86
389.781	172.19
389.996	217.24
390.211	245.91
390.426	157.85
390.641	252.06
390.855	274.59
391.07	299.16
391.285	168.09
391.5	315.54
391.714	229.53
391.929	221.34
392.144	295.07
392.358	264.35
392.573	262.3
392.788	180.38
393.002	307.35
393.217	274.59
393.431	282.78
393.646	262.3
393.86	282.78
394.075	274.59
394.289	278.68
394.504	272.54
394.718	376.98
394.933	307.35
395.147	303.26
395.361	282.78
395.576	340.12
395.79	354.46
396.004	336.02
396.218	385.18
396.432	422.04
396.647	376.98
396.861	290.97
397.075	344.22
397.289	405.66
397.503	387.22
397.717	360.6
397.931	350.36
398.145	331.93
398.359	463
398.573	440.47
398.787	491.67
399.001	448.66
399.215	458.9
399.429	485.53
399.643	489.62
399.857	481.43
400.07	508.05
400.284	452.76
400.498	536.73
400.712	594.07
400.925	608.4
401.139	540.82
401.353	526.49
401.566	538.77
401.78	624.79
401.994	614.55
402.207	655.51
402.421	749.71
402.634	729.23
402.848	684.18
403.061	696.47
403.275	624.79
403.488	745.62
403.702	708.75
403.915	686.23
404.128	716.95
404.342	749.71
404.555	753.81
404.768	843.92
404.982	794.77
405.195	837.78
405.408	712.85
405.621	936.08
405.835	934.03
406.048	864.4
406.261	954.51
406.474	876.69
406.687	929.94
406.9	893.07
407.113	954.51
407.326	952.46
407.539	1065.1
407.752	1099.92
407.965	1110.16
408.178	1106.06
408.391	1099.92
408.604	1155.21
408.817	1151.12
409.029	1142.92
409.242	1134.73
409.455	1155.21
409.668	1241.23
409.881	1273.99
410.093	1302.67
410.306	1319.05
410.519	1278.09
410.731	1372.3
410.944	1331.34
411.157	1380.49
411.369	1507.46
411.582	1548.42
411.794	1532.04
412.007	1499.27
412.219	1564.81
412.432	1466.5
412.644	1517.7
412.857	1556.61
413.069	1677.44
413.281	1697.92
413.494	1558.66
413.706	1753.22
413.918	1683.59
414.131	1775.75
414.343	1673.35
414.555	1704.07
414.767	1702.02
414.979	1679.49
415.192	1810.56
415.404	1900.67
415.616	1822.85
415.828	1839.23
416.04	1884.29
416.252	1839.23
416.464	1843.33
416.676	1904.77
416.888	2064.51
417.1	1933.44
417.312	1998.98
417.524	1970.3
417.736	1986.69
417.948	2109.57
418.159	2084.99
418.371	2076.8
418.583	1937.54
418.795	1984.64
419.007	2017.41
419.218	2031.74
419.43	2105.47
419.642	2195.58
419.853	2277.5
420.065	2254.97
420.276	2181.24
420.488	2427
420.7	2277.5
420.911	2343.03
421.123	2418.81
421.334	2273.4
421.546	2400.38
421.757	2351.23
421.969	2336.89
422.18	2379.9
422.391	2422.9
422.603	2404.47
422.814	2494.58
423.025	2455.67
423.237	2343.03
423.448	2449.53
423.659	2662.52
423.87	2531.45
424.082	2551.93
424.293	2572.41
424.504	2461.82
424.715	2678.9
424.926	2631.8
425.137	2433.14
425.348	2517.11
425.559	2713.72
425.77	2785.4
425.981	2642.04
426.192	2664.56
426.403	2652.28
426.614	2652.28
426.825	2666.61
427.036	2629.75
427.247	2484.34
427.458	2699.38
427.668	2650.23
427.879	2613.37
428.09	2646.13
428.301	2844.79
428.511	2740.34
428.722	2742.39
428.933	2781.3
429.143	2801.78
429.354	2674.8
429.565	2920.56
429.775	2746.48
429.986	2797.68
430.196	2781.3
430.407	2752.63
430.617	2646.13
430.828	2699.38
431.038	2728.05
431.249	2828.4
431.459	2685.04
431.669	2689.14
431.88	2746.48
432.09	2623.61
432.3	2764.92
432.511	2762.87
432.721	2652.28
432.931	2967.66
433.141	2603.13
433.351	2824.31
433.562	2928.75
433.772	2908.27
433.982	2852.98
434.192	2867.31
434.402	2705.52
434.612	2683
434.822	2812.02
435.032	2670.71
435.242	2750.58
435.452	2955.38
435.662	2664.56
435.872	2844.79
436.082	2756.72
436.292	2566.26
436.502	2588.79
436.711	2803.83
436.921	2826.35
437.131	2760.82
437.341	2627.7
437.551	2900.08
437.76	2713.72
437.97	2658.42
438.18	2666.61
438.389	2664.56
438.599	2728.05
438.808	2801.78
439.018	2736.24
439.228	2809.97
439.437	2703.48
439.647	2672.76
439.856	2689.14
440.066	2545.78
440.275	2621.56
440.484	2715.76
440.694	2633.85
440.903	2715.76
441.113	2484.34
441.322	2662.52
441.531	2674.8
441.741	2672.76
441.95	2642.04
442.159	2637.94
442.368	2728.05
442.577	2674.8
442.787	2637.94
442.996	2711.67
443.205	2750.58
443.414	2736.24
443.623	2715.76
443.832	2615.41
444.041	2777.2
444.25	2551.93
444.459	2549.88
444.668	2539.64
444.877	2670.71
445.086	2523.26
445.295	2506.87
445.504	2705.52
445.713	2545.78
445.922	2457.72
446.13	2654.33
446.339	2453.62
446.548	2392.19
446.757	2519.16
446.965	2492.54
447.174	2556.02
447.383	2476.15
447.591	2287.74
447.8	2406.52
448.009	2549.88
448.217	2519.16
448.426	2680.95
448.634	2515.06
448.843	2551.93
449.051	2418.81
449.26	2613.37
449.468	2457.72
449.677	2596.98
449.885	2508.92
450.093	2613.37
450.302	2420.86
450.51	2553.97
450.719	2437.24
450.927	2629.75
451.135	2582.65
451.343	2459.77
451.552	2416.76
451.76	2457.72
451.968	2500.73
452.176	2465.91
452.384	2343.03
452.592	2560.12
452.8	2459.77
453.009	2502.78
453.217	2539.64
453.425	2367.61
453.633	2383.99
453.841	2490.49
454.049	2556.02
454.257	2383.99
454.464	2277.5
454.672	2564.21
454.88	2594.93
455.088	2439.29
455.296	2359.42
455.504	2412.66
455.711	2355.32
455.919	2490.49
456.127	2359.42
456.335	2596.98
456.542	2488.44
456.75	2494.58
456.958	2605.17
457.165	2625.65
457.373	2572.41
457.581	2553.97
457.788	2521.21
457.996	2582.65
458.203	2474.1
458.411	2785.4
458.618	2338.94
458.826	2519.16
459.033	2502.78
459.24	2660.47
459.448	2662.52
459.655	2596.98
459.863	2773.11
460.07	2613.37
460.277	2476.15
460.484	2543.73
460.692	2574.45
460.899	2611.32
461.106	2451.58
461.313	2760.82
461.52	2619.51
461.728	2607.22
461.935	2672.76
462.142	2558.07
462.349	2596.98
462.556	2697.33
462.763	2680.95
462.97	2740.34
463.177	2580.6
463.384	2769.01
463.591	2707.57
463.798	2650.23
464.005	2779.25
464.212	2699.38
464.418	2629.75
464.625	2789.49
464.832	2769.01
465.039	2728.05
465.246	2855.03
465.452	2859.12
465.659	2664.56
465.866	2885.75
466.072	2957.42
466.279	2955.38
466.486	2756.72
466.692	2787.44
466.899	2941.04
467.105	2793.59
467.312	2838.64
467.519	2893.94
467.725	3031.15
467.931	3065.97
468.138	2947.18
468.344	2994.29
468.551	2984.05
468.757	3051.63
468.964	3164.27
469.17	2926.7
469.376	3229.8
469.583	3125.36
469.789	3231.85
469.995	3276.91
470.201	3256.43
470.408	3123.31
470.614	3334.25
470.82	3354.73
471.026	3309.68
471.232	3348.59
471.438	3301.48
471.644	3420.27
471.85	3405.93
472.056	3444.84
472.262	3518.57
472.468	3508.33
472.674	3608.68
472.88	3532.9
473.086	3661.93
473.292	3655.78
473.498	3661.93
473.704	3731.56
473.91	3647.59
474.116	3817.57
474.321	3801.19
474.527	3825.76
474.733	3866.72
474.939	4010.08
475.144	3883.11
475.35	3881.06
475.556	3973.22
475.761	3881.06
475.967	4227.17
476.173	4145.25
476.378	4317.28
476.584	4317.28
476.789	4235.36
476.995	4313.18
477.2	4165.73
477.406	4468.83
477.611	4485.21
477.817	4538.46
478.022	4309.08
478.227	4548.7
478.433	4442.2
478.638	4540.5
478.843	4702.29
479.049	4730.97
479.254	4876.37
479.459	4612.18
479.664	4794.45
479.87	4726.87
480.075	4802.64
480.28	4870.23
480.485	4878.42
480.69	4890.71
480.895	5034.06
481.1	5038.16
481.306	4925.52
481.511	5417.03
481.716	5081.17
481.921	5230.67
482.126	5392.46
482.33	5462.09
482.535	5466.19
482.74	5498.95
482.945	5509.19
483.15	5556.3
483.355	5455.95
483.56	5560.39
483.765	5642.31
483.969	5652.55
484.174	5660.74
484.379	5769.29
484.583	5791.81
484.788	5787.72
484.993	5734.47
485.197	5720.13
485.402	5793.86
485.607	5881.92
485.811	5804.1
486.016	5937.22
486.22	5982.27
486.425	6168.64
486.629	6154.3
486.834	6139.97
487.038	6045.76
487.243	6072.38
487.447	6105.15
487.652	6322.24
487.856	6225.98
488.06	6402.11
488.265	6295.61
488.469	6545.47
488.673	6619.19
488.877	6492.22
489.082	6555.71
489.286	6576.19
489.49	6496.31
489.694	6766.65
489.898	6623.29
490.102	6686.78
490.307	6645.82
490.511	6817.85
490.715	6848.57
490.919	6864.95
491.123	6840.37
491.327	6965.3
491.531	6979.64
491.735	7100.47
491.939	7002.16
492.143	7043.12
492.346	6955.06
492.55	7129.14
492.754	7086.13
492.958	7159.86
493.162	7225.39
493.366	7303.21
493.569	7399.47
493.773	7358.51
493.977	7366.7
494.18	7348.27
494.384	7508.01
494.588	7684.14
494.791	7360.56
494.995	7604.27
495.199	7723.05
495.402	7649.32
495.606	7669.8
495.809	7856.17
496.013	7530.54
496.216	7737.38
496.42	7833.64
496.623	7886.89
496.827	7921.7
497.03	8095.78
497.233	8095.78
497.437	8063.01
497.64	8175.65
497.843	8130.59
498.047	8128.55
498.25	8173.6
498.453	8271.9
498.656	8265.76
498.86	8120.35
499.063	8462.36
499.266	8249.38
499.469	8495.13
499.672	8400.93
499.875	8335.39
500.078	8488.99
500.281	8652.83
500.484	8319.01
500.687	8644.63
500.89	8335.39
501.093	8575
501.296	8704.02
501.499	8810.52
501.702	8630.3
501.905	8661.02
502.108	8927.25
502.311	8945.69
502.514	8917.01
502.716	9232.4
502.919	9134.1
503.122	8992.79
503.325	9365.52
503.527	9207.83
503.73	9224.21
503.933	9211.92
504.135	9342.99
504.338	9472.01
504.541	9345.04
504.743	9732.11
504.946	9435.15
505.148	9486.35
505.351	9594.89
505.553	9818.12
505.756	9697.29
505.958	9709.58
506.161	9857.03
506.363	9795.59
506.565	9863.18
506.768	9984.01
506.97	9990.15
507.172	10125.32
507.375	10166.27
507.577	10233.86
507.779	10280.96
507.982	10334.21
508.184	10334.21
508.386	10299.39
508.588	10340.35
508.79	10633.21
508.993	10766.33
509.195	10848.25
509.397	10901.5
509.599	11001.85
509.801	10907.64
510.003	11065.33
510.205	11165.68
510.407	11157.49
510.609	11069.43
510.811	11345.9
511.013	11096.05
511.215	11575.28
511.417	11497.45
511.618	11866.09
511.82	11728.87
512.022	11606
512.224	11642.86
512.426	11773.93
512.627	11974.63
512.829	12095.46
513.031	12197.86
513.233	12568.54
513.434	12318.69
513.636	12290.02
513.838	12546.01
514.039	12664.8
514.241	12734.43
514.442	12718.04
514.644	12756.95
514.845	12795.87
515.047	12920.79
515.248	13344.72
515.45	13316.05
515.651	13598.67
515.853	13483.98
516.054	13959.11
516.256	13684.68
516.457	13944.78
516.658	14028.74
516.86	13852.62
517.061	14043.08
517.262	14049.22
517.463	14376.9
517.665	14542.78
517.866	14550.98
518.067	14305.22
518.268	14737.34
518.469	14667.71
518.67	14675.9
518.872	14950.33
519.073	14739.39
519.274	15138.74
519.475	14933.95
519.676	15316.92
519.877	15007.67
520.078	15282.1
520.279	15204.28
520.48	15792.04
520.681	15830.96
520.881	15746.99
521.082	15648.69
521.283	15941.55
521.484	15650.73
521.685	15990.7
521.886	15994.79
522.086	16189.35
522.287	16461.73
522.488	16789.41
522.689	16631.71
522.889	16687.01
523.09	16805.79
523.291	16910.24
523.491	17160.09
523.692	16924.57
523.892	16621.47
524.093	16846.75
524.294	17137.56
524.494	17657.74
524.695	17330.07
524.895	17489.81
525.096	17248.15
525.296	17432.47
525.496	17801.1
525.697	17823.63
525.897	17506.19
526.098	17858.45
526.298	17584.02
526.498	18038.67
526.699	18132.87
526.899	18229.13
527.099	18134.92
527.299	18583.43
527.499	18382.73
527.7	18534.27
527.9	18188.17
528.1	18577.28
528.3	18401.16
528.5	18757.5
528.7	18796.41
528.9	18843.52
529.1	18820.99
529.3	19199.86
529.5	18990.97
529.7	19337.08
529.9	19103.61
530.1	19343.22
530.3	19199.86
530.5	19693.43
530.7	19425.14
530.9	19537.78
531.1	19457.91
531.3	19797.87
531.499	19527.54
531.699	19988.33
531.899	19801.97
532.099	20057.96
532.298	20135.79
532.498	20402.02
532.698	20172.65
532.897	20500.32
533.097	20504.42
533.297	21069.66
533.496	20553.57
533.696	20860.77
533.895	20504.42
534.095	20944.73
534.294	20508.52
534.494	20961.12
534.693	20840.29
534.893	20842.34
535.092	21204.83
535.292	21323.61
535.491	21501.78
535.69	21827.41
535.89	21170.01
536.089	21702.48
536.288	21749.59
536.488	21983.05
536.687	21731.15
536.886	21530.45
537.085	22079.31
537.285	22173.52
537.484	21684.05
537.683	22290.25
537.882	21948.24
538.081	22603.59
538.28	22441.8
538.479	22361.93
538.678	22447.94
538.877	22587.2
539.076	22904.64
539.275	23117.63
539.474	22949.7
539.673	22970.18
539.872	22921.02
540.071	23197.5
540.27	22951.74
540.469	23390.01
540.668	23301.95
540.867	23592.76
541.065	23332.67
541.264	23717.68
541.463	23545.65
541.662	23670.58
541.861	23760.69
542.059	24223.53
542.258	23967.54
542.457	24176.43
542.655	24215.34
542.854	24581.93
543.052	23893.81
543.251	24260.4
543.45	24225.58
543.648	24633.13
543.847	24239.92
544.045	24631.08
544.244	24790.82
544.442	25120.54
544.641	24756
544.839	25272.09
545.037	24794.92
545.236	25067.3
545.434	24919.84
545.632	25159.45
545.831	24928.03
546.029	25620.25
546.227	25306.91
546.426	26185.49
546.624	25544.47
546.822	26099.47
547.02	26275.6
547.218	26203.92
547.417	25888.53
547.615	26107.66
547.813	26361.61
548.011	26488.59
548.209	26181.39
548.407	26627.85
548.605	27084.54
548.803	27057.92
549.001	27299.58
549.199	27062.02
549.397	27123.46
549.595	27170.56
549.793	26633.99
549.991	26752.77
550.189	26955.52
550.387	27205.37
550.584	27225.85
550.782	27238.14
550.98	27150.08
551.178	27653.88
551.376	27651.83
551.573	27858.68
551.771	27997.94
551.969	28012.27
552.166	28456.68
552.364	27944.69
552.562	27664.12
552.759	28184.3
552.957	28135.15
553.154	28040.95
553.352	27995.89
553.55	28540.65
553.747	28202.74
553.945	28397.29
554.142	28602.09
554.339	29470.43
554.537	28940
554.734	29519.58
554.932	29165.28
555.129	29277.92
555.326	29277.92
555.524	29533.91
555.721	29390.56
555.918	29824.73
556.116	29646.55
556.313	30103.25
556.51	29712.09
556.707	30688.97
556.904	30117.59
557.102	30428.88
557.299	29941.46
557.496	30447.31
557.693	30607.05
557.89	30645.96
558.087	30723.78
558.284	30803.66
558.481	30127.83
558.678	30496.46
558.875	30191.31
559.072	30273.23
559.269	30803.66
559.466	30766.79
559.663	30484.17
559.86	31151.81
560.057	31049.41
560.254	30885.57
560.45	31268.54
560.647	32143.03
560.844	31241.92
561.041	31502.01
561.237	31651.51
561.434	32339.63
561.631	31956.66
561.828	32143.03
562.024	32159.41
562.221	32669.36
562.418	32476.85
562.614	32558.76
562.811	32609.96
563.007	32999.08
563.204	32474.8
563.4	32962.21
563.597	32571.05
563.793	33214.11
563.99	32949.93
564.186	33482.4
564.383	32894.63
564.579	33433.25
564.775	32806.57
564.972	33236.64
565.168	33369.76
565.365	33955.48
565.561	33203.87
565.757	33341.09
565.953	33062.57
566.15	33484.45
566.346	33371.81
566.542	33932.95
566.738	33494.69
566.934	33715.87
567.131	33965.72
567.327	33609.37
567.523	32814.76
567.719	33552.03
567.915	33009.32
568.111	33558.17
568.307	33187.49
568.503	33848.99
568.699	33795.74
568.895	34569.87
569.091	34084.5
569.287	34412.18
569.483	34139.8
569.679	34606.73
569.875	34401.94
570.07	34752.14
570.266	34664.08
570.462	35462.78
570.658	34557.58
570.854	34483.86
571.049	34909.83
571.245	35235.46
571.441	35079.81
571.636	35749.5
571.832	35085.96
572.028	35872.38
572.223	35591.81
572.419	36060.79
572.615	35219.08
572.81	35759.74
573.006	35802.75
573.201	36220.53
573.397	36081.27
573.592	36312.69
573.788	35661.44
573.983	35982.97
574.179	36136.57
574.374	36040.31
574.569	36116.09
574.765	36515.44
574.96	34958.98
575.156	36011.64
575.351	35526.27
575.546	36501.1
575.741	36023.93
575.937	36314.74
576.132	35913.34
576.327	36400.75
576.522	36046.46
576.718	36570.74
576.913	36365.94
577.108	36673.13
577.303	36157.05
577.498	36947.56
577.693	36783.72
577.888	36279.92
578.083	36417.14
578.278	36734.57
578.473	36423.28
578.668	36623.98
578.863	36271.73
579.058	37348.96
579.253	36748.91
579.448	37025.38
579.643	36951.66
579.838	38082.14
580.033	37215.85
580.227	37985.88
580.422	36912.75
580.617	37844.57
580.812	37488.23
581.006	37572.19
581.201	37783.13
581.396	38049.37
581.591	37432.93
581.785	37320.29
581.98	37402.21
582.175	38348.37
582.369	37926.49
582.564	38544.98
582.758	38970.95
582.953	38467.15
583.147	37785.18
583.342	39093.83
583.536	37875.29
583.731	38852.17
583.925	38630.99
584.12	39030.35
584.314	38647.38
584.509	38407.76
584.703	38811.21
584.897	38958.67
585.092	38434.39
585.286	38809.17
585.48	38516.31
585.674	38512.21
585.869	39011.91
586.063	39044.68
586.257	38276.69
586.451	38940.24
586.646	38768.21
586.84	38598.22
587.034	38454.87
587.228	39450.18
587.422	38733.39
587.616	39978.56
587.81	39546.43
588.004	39759.42
588.198	39253.57
588.392	39003.72
588.586	38563.41
588.78	39583.3
588.974	39280.2
589.168	39441.99
589.362	38780.49
589.556	39202.38
589.75	38850.12
589.944	39525.95
590.137	39347.78
590.331	39360.07
590.525	39319.11
590.719	39931.45
590.913	39489.09
591.106	39495.23
591.3	39923.26
591.494	40332.85
591.687	39564.87
591.881	39882.3
592.075	39241.29
592.268	40023.61
592.462	39540.29
592.655	39450.18
592.849	39892.54
593.043	40572.47
593.236	40185.4
593.43	40414.77
593.623	40523.32
593.817	41358.89
594.01	40142.39
594.203	40623.67
594.397	40541.75
594.59	41141.8
594.784	40420.92
594.977	41014.83
595.17	40943.15
595.364	41322.02
595.557	41072.17
595.75	41475.62
595.943	40834.61
596.137	41317.93
596.33	40736.3
596.523	42118.68
596.716	41498.15
596.909	41588.26
597.102	41227.82
597.296	41422.37
597.489	41242.15
597.682	41465.38
597.875	40980.01
598.068	41106.99
598.261	40816.17
598.454	41473.57
598.647	41051.69
598.84	42511.89
599.033	41291.3
599.226	41997.85
599.419	41750.05
599.611	41592.35
599.804	41465.38
599.997	41045.55
600.19	41170.47
600.383	41506.34
600.576	41457.19
600.768	41889.31
600.961	41100.84
601.154	41610.79
601.347	41223.72
601.539	42040.86
601.732	42042.91
601.925	41850.4
602.117	41563.68
602.31	42421.78
602.502	41993.76
602.695	42608.15
602.888	42481.17
603.08	42755.6
603.273	42587.67
603.465	42294.81
603.658	42731.03
603.85	42620.44
604.043	42575.38
604.235	43126.28
604.427	42608.15
604.62	43204.11
604.812	42348.06
605.004	42190.36
605.197	41950.75
605.389	42092.06
605.581	41991.71
605.774	42137.11
605.966	41784.86
606.158	42087.96
606.35	40961.58
606.543	42874.38
606.735	42135.07
606.927	42780.18
607.119	42941.97
607.311	43290.12
607.503	43443.72
607.695	43277.83
607.887	42429.97
608.079	43664.9
608.271	42612.24
608.463	43947.52
608.655	43402.76
608.847	43382.28
609.039	42788.37
609.231	42757.65
609.423	42759.7
609.615	43167.24
609.807	43202.06
609.999	43185.67
610.191	43587.08
610.382	43359.75
610.574	43200.01
610.766	43630.08
610.958	43212.3
611.15	43415.05
611.341	42878.48
611.533	43226.63
611.725	42571.28
611.916	42976.78
612.108	42642.96
612.3	42890.77
612.491	42925.58
612.683	43439.62
612.874	43109.9
613.066	43724.29
613.257	42628.63
613.449	44158.46
613.64	43900.42
613.832	43423.24
614.023	43093.52
614.215	43587.08
614.406	43705.86
614.598	43746.82
614.789	43181.58
614.98	43810.31
615.172	43378.18
615.363	43632.13
615.554	43167.24
615.746	44023.29
615.937	43562.5
616.128	43318.79
616.319	42960.4
616.511	43398.66
616.702	43460.1
616.893	43390.47
617.084	43394.57
617.275	44021.25
617.466	43734.53
617.658	43798.02
617.849	43560.45
618.04	43456.01
618.231	44062.21
618.422	44137.98
618.613	43652.61
618.804	43550.21
618.995	43503.11
619.186	43972.09
619.377	43503.11
619.568	44195.32
619.758	44066.3
619.949	44244.47
620.14	44086.78
620.331	44488.18
620.522	44371.45
620.713	44824.05
620.903	44496.37
621.094	45121.01
621.285	44723.7
621.476	45290.99
621.666	44830.19
621.857	45180.4
622.048	44908.02
622.238	45821.41
622.429	45848.03
622.62	46634.45
622.81	46208.48
623.001	46654.93
623.191	46351.83
623.382	46992.85
623.572	46630.36
623.763	47650.25
623.953	46544.34
624.144	47527.37
624.334	47052.24
624.525	48240.06
624.715	47109.58
624.905	48039.36
625.096	47275.47
625.286	47488.46
625.477	47992.26
625.667	48371.13
625.857	48608.7
626.047	48827.83
626.238	48215.49
626.428	49044.91
626.618	47947.2
626.808	49456.55
626.999	48567.74
627.189	49266.09
627.379	49612.2
627.569	49872.29
627.759	49434.03
627.949	49835.43
628.139	49483.18
628.329	50124.19
628.519	49575.34
628.709	50220.45
628.899	49771.94
629.089	50757.02
629.279	49825.19
629.469	50443.68
629.659	49763.75
629.849	50445.72
630.039	49278.38
630.229	50245.02
630.419	49378.73
630.609	50075.04
630.798	50247.07
630.988	50236.83
631.178	50015.65
631.368	50840.98
631.557	50156.96
631.747	51045.78
631.937	50206.11
632.127	50951.57
632.316	49477.03
632.506	50845.08
632.696	50746.78
632.885	50828.69
633.075	49769.89
633.264	49960.36
633.454	49571.24
633.643	50589.08
633.833	49825.19
634.022	51174.8
634.212	50361.76
634.401	51160.46
634.591	51021.2
634.78	51287.44
634.97	50271.65
635.159	51187.09
635.348	50204.06
635.538	50464.16
635.727	50441.63
635.916	50242.97
636.106	49548.71
636.295	49657.26
636.484	48995.76
636.674	49835.43
636.863	49540.52
637.052	50183.58
637.241	49935.78
637.43	51180.94
637.619	49700.26
637.809	50824.6
637.998	50140.58
638.187	50083.23
638.376	49853.86
638.565	50152.86
638.754	50097.57
638.943	49788.33
639.132	49182.13
639.321	49827.24
639.51	49149.36
639.699	49282.48
639.888	48891.32
640.077	49771.94
640.266	49460.65
640.455	49556.91
640.643	49100.21
640.832	50003.36
641.021	48739.77
641.21	49186.22
641.399	48541.11
641.587	49878.44
641.776	49327.53
641.965	49546.67
642.154	49563.05
642.342	48817.59
642.531	48108.99
642.72	48473.53
642.908	47801.8
643.097	48035.26
643.286	48360.89
643.474	49044.91
643.663	48915.89
643.851	48946.61
644.04	48567.74
644.228	48604.6
644.417	47834.56
644.605	48707
644.794	48020.93
644.982	49042.87
645.171	48260.54
645.359	48674.23
645.547	47490.5
645.736	48666.04
645.924	48012.74
646.112	48180.67
646.301	48248.25
646.489	48219.58
646.677	47814.08
646.866	48678.33
647.054	47562.18
647.242	48076.22
647.43	47508.94
647.618	48625.08
647.807	48457.15
647.995	48928.18
648.183	47717.83
648.371	48002.5
648.559	47912.39
648.747	48014.78
648.935	47707.59
649.123	47932.87
649.311	47062.48
649.499	47758.79
649.687	47289.8
649.875	47965.63
650.063	47420.87
650.251	48274.88
650.439	47551.94
650.627	47877.57
650.815	47961.54
651.003	48199.1
651.191	47132.11
651.378	47617.48
651.566	46300.64
651.754	47797.7
651.942	47386.06
652.13	47388.11
652.317	46222.81
652.505	47617.48
652.693	47318.48
652.88	47609.29
653.068	46908.88
653.256	47582.66
653.443	47613.38
653.631	47814.08
653.819	47416.78
654.006	47867.33
654.194	46464.47
654.381	47803.84
654.569	47044.05
654.756	47527.37
654.944	46517.72
655.131	47853
655.319	47338.96
655.506	46927.31
655.693	46607.83
655.881	47517.13
656.068	46931.41
656.256	47676.87
656.443	47504.84
656.63	47869.38
656.818	47285.71
657.005	47967.68
657.192	47904.19
657.379	47455.69
657.567	46980.56
657.754	48264.64
657.941	47490.5
658.128	47642.05
658.315	47146.45
658.502	47926.72
658.69	46833.11
658.877	47121.87
659.064	46820.82
659.251	47341
659.438	47474.12
659.625	47855.04
659.812	48149.95
659.999	48352.7
660.186	47379.91
660.373	48186.81
660.56	47166.93
660.747	46863.83
660.934	47283.66
661.121	47400.39
661.308	46779.86
661.494	47146.45
661.681	47351.24
661.868	47216.08
662.055	46601.69
662.242	47302.09
662.428	46900.69
662.615	47527.37
662.802	46951.89
662.989	47691.21
663.175	46884.31
663.362	47705.54
663.549	46855.63
663.735	47369.67
663.922	47011.28
664.109	47453.64
664.295	47138.25
664.482	47027.66
664.668	46530.01
664.855	47396.3
665.041	46271.96
665.228	46984.66
665.414	46241.24
665.601	46063.07
665.787	46159.33
665.974	46433.75
666.16	46484.95
666.347	46552.54
666.533	46026.21
666.719	47332.81
666.906	46384.6
667.092	46697.94
667.278	46144.99
667.465	46740.95
667.651	45921.76
667.837	46867.92
668.023	46263.77
668.21	46661.08
668.396	46321.11
668.582	46972.37
668.768	46462.42
668.954	46403.03
669.14	45665.76
669.327	45843.94
669.513	45581.8
669.699	46329.31
669.885	45606.37
670.071	46925.27
670.257	46622.17
670.443	46624.21
670.629	46228.96
670.815	46175.71
671.001	45874.66
671.187	46497.24
671.373	45250.03
671.559	45913.57
671.744	45231.6
671.93	45381.1
672.116	45571.56
672.302	45872.61
672.488	45553.13
672.674	45874.66
672.859	45342.19
673.045	46200.28
673.231	46159.33
673.417	46372.31
673.602	45979.1
673.788	46554.58
673.974	46388.7
674.159	46276.06
674.345	46013.92
674.531	45878.75
674.716	45661.67
674.902	46077.41
675.087	44676.6
675.273	45927.9
675.459	45204.97
675.644	45798.88
675.83	45217.26
676.015	46093.79
676.2	45252.08
676.386	46183.9
676.571	45807.07
676.757	46523.86
676.942	46257.63
677.128	46929.36
677.313	46511.58
677.498	47068.62
677.684	46654.93
677.869	46945.75
678.054	45975.01
678.24	45968.86
678.425	45723.11
678.61	45778.4
678.795	44856.82
678.98	45805.03
679.166	44942.83
679.351	45317.61
679.536	44760.56
679.721	45839.84
679.906	45032.94
680.091	45299.18
680.276	45293.03
680.461	45669.86
680.647	44807.67
680.832	46118.37
681.017	45282.79
681.202	45534.69
681.387	44908.02
681.572	45835.75
681.756	45303.27
681.941	45594.09
682.126	45053.42
682.311	44525.05
682.496	44496.37
682.681	44955.12
682.866	44807.67
683.051	45190.64
683.235	44002.81
683.42	44611.06
683.605	44846.58
683.79	45127.15
683.974	44563.96
684.159	45323.75
684.344	45409.77
684.529	45123.05
684.713	44348.92
684.898	44330.49
685.083	44283.39
685.267	44232.19
685.452	44461.56
685.636	44332.54
685.821	43890.18
686.005	43521.54
686.19	43615.75
686.375	43413
686.559	43329.03
686.744	43677.19
686.928	43595.27
687.112	44430.84
687.297	43939.33
687.481	44166.65
687.666	44150.27
687.85	44860.91
688.034	44813.81
688.219	45762.02
688.403	44389.88
688.587	45231.6
688.772	44320.25
688.956	44496.37
689.14	44363.26
689.324	44953.07
689.509	44142.08
689.693	44557.81
689.877	44641.78
690.061	44670.45
690.245	44412.41
690.43	44619.25
690.614	43996.67
690.798	44285.43
690.982	44643.83
691.166	44832.24
691.35	43890.18
691.534	44830.19
691.718	43968
691.902	44402.17
692.086	44066.3
692.27	43486.73
692.454	43079.18
692.638	43517.45
692.822	43599.36
693.006	43619.84
693.19	43691.52
693.373	43339.27
693.557	43515.4
693.741	43974.14
693.925	42718.74
694.109	43666.95
694.293	43140.62
694.476	43501.06
694.66	42659.35
694.844	43181.58
695.027	42245.66
695.211	43595.27
695.395	42808.85
695.578	43757.06
695.762	42432.02
695.946	42812.94
696.129	41952.8
696.313	42587.67
696.497	42534.42
696.68	42761.75
696.864	41784.86
697.047	42147.35
697.231	41719.33
697.414	41922.08
697.598	41301.54
697.781	42382.87
697.965	41711.14
698.148	42106.4
698.331	40932.91
698.515	42151.45
698.698	41580.07
698.881	42565.14
699.065	41733.66
699.248	42128.92
699.431	41639.46
699.615	42569.24
699.798	41676.32
699.981	41979.42
700.165	41582.12
700.348	41774.62
700.531	41156.14
700.714	41393.7
700.897	40601.14
701.08	41256.49
701.264	40461.88
701.447	40320.57
701.63	40764.98
701.813	41594.4
701.996	40136.25
702.179	40877.61
702.362	40785.46
702.545	41569.83
702.728	41850.4
702.911	41907.74
703.094	41276.97
703.277	41942.56
703.46	40259.13
703.643	40500.79
703.826	40107.58
704.009	41496.1
704.191	40015.42
704.374	40136.25
704.557	39974.46
704.74	40592.95
704.923	39663.17
705.106	40187.45
705.288	39759.42
705.471	39784
705.654	39734.85
705.837	40037.95
706.019	39900.73
706.202	39740.99
706.385	39677.5
706.567	40304.18
706.75	39996.99
706.932	40126.01
707.115	39767.61
707.298	39130.7
707.48	38745.68
707.663	38106.71
707.845	37484.13
708.028	38176.34
708.21	37934.68
708.393	38293.08
708.575	37643.87
708.758	38245.97
708.94	37539.42
709.123	37906.01
709.305	37582.43
709.487	38418
709.67	37713.5
709.852	38030.94
710.034	37951.07
710.217	38841.93
710.399	38422.1
710.581	38182.49
710.764	38184.53
710.946	38106.71
711.128	36992.62
711.31	37873.24
711.492	37555.81
711.675	37643.87
711.857	37119.59
712.039	37285.48
712.221	37111.4
712.403	37068.39
712.585	37396.07
712.767	37750.37
712.949	36515.44
713.131	36652.65
713.314	36497.01
713.496	36349.55
713.678	35952.25
713.86	36843.12
714.041	36736.62
714.223	37158.5
714.405	36984.43
714.587	36847.21
714.769	36546.16
714.951	37033.58
715.133	36185.72
715.315	36669.04
715.497	36138.61
715.678	36300.4
715.86	35985.02
716.042	36214.39
716.224	35849.85
716.406	36509.3
716.587	36193.91
716.769	35767.93
716.951	35520.13
717.132	35556.99
717.314	35290.76
717.496	35479.17
717.677	35098.25
717.859	35663.49
718.041	35475.07
718.222	36335.22
718.404	35219.08
718.585	35661.44
718.767	34659.98
718.948	35065.48
719.13	34440.85
719.311	34569.87
719.493	34336.4
719.674	34307.73
719.856	34371.22
720.037	34199.19
720.219	33822.36
720.4	33961.62
720.581	33973.91
720.763	33994.39
720.944	33939.1
721.125	34354.83
721.307	33648.28
721.488	34049.69
721.669	34016.92
721.85	34213.52
722.032	33978.01
722.213	33842.84
722.394	33345.18
722.575	33330.85
722.756	32958.12
722.938	33480.35
723.119	32521.9
723.3	32210.61
723.481	31794.87
723.662	32192.18
723.843	32249.52
724.024	32579.24
724.205	32300.72
724.386	32564.91
724.567	32034.48
724.748	32304.82
724.929	32468.65
725.11	32792.23
725.291	32476.85
725.472	32642.73
725.653	32851.62
725.834	32732.84
726.015	32429.74
726.196	32380.59
726.377	31927.99
726.557	31217.35
726.738	30920.39
726.919	31532.73
727.1	30705.35
727.281	30260.94
727.461	30385.87
727.642	30211.79
727.823	30183.12
728.004	30453.45
728.184	29828.82
728.365	30392.01
728.546	30344.91
728.726	30521.04
728.907	30342.86
729.087	30754.5
729.268	30045.91
729.449	30484.17
729.629	30050
729.81	29916.89
729.99	30398.16
730.171	30279.38
730.351	29880.02
730.532	30004.95
730.712	29648.6
730.893	29851.35
731.073	29177.57
731.253	29664.98
731.434	28841.7
731.614	28958.44
731.795	28432.11
731.975	29152.99
732.155	28176.11
732.336	28753.64
732.516	28258.03
732.696	28954.34
732.876	28722.92
733.057	28966.63
733.237	28471.02
733.417	29013.73
733.597	28071.67
733.778	28401.39
733.958	27936.5
734.138	28413.68
734.318	27842.29
734.498	27844.34
734.678	27070.21
734.858	27307.77
735.038	26898.18
735.218	27162.37
735.398	27094.78
735.579	27000.58
735.759	26658.57
735.939	26861.32
736.119	26314.51
736.298	26763.01
736.478	26652.42
736.658	26709.77
736.838	26279.69
737.018	26429.19
737.198	25954.07
737.378	26197.77
737.558	25800.47
737.738	26019.6
737.917	25935.63
738.097	25818.9
738.277	25515.8
738.457	25958.16
738.637	25200.41
738.816	25489.18
738.996	24842.02
739.176	25577.24
739.355	25024.29
739.535	25038.62
739.715	24848.16
739.894	25327.39
740.074	24764.2
740.254	25034.53
740.433	24854.31
740.613	24821.54
740.792	24762.15
740.972	24964.9
741.151	24090.41
741.331	24796.96
741.51	24772.39
741.69	24239.92
741.869	24307.5
742.049	24500.01
742.228	23758.64
742.408	24145.71
742.587	23521.08
742.766	23942.96
742.946	23732.02
743.125	23547.7
743.305	23281.47
743.484	23209.79
743.663	22964.03
743.842	23136.06
744.022	22736.71
744.201	23187.26
744.38	22716.23
744.56	22548.29
744.739	23007.04
744.918	22972.22
745.097	22970.18
745.276	22544.2
745.455	22400.84
745.635	22435.66
745.814	22310.73
745.993	22538.05
746.172	22167.37
746.351	22460.23
746.53	22130.51
746.709	22554.44
746.888	22568.77
747.067	22343.5
747.246	21919.57
747.425	22433.61
747.604	21856.08
747.783	21931.85
747.962	22034.25
748.141	21921.62
748.32	21978.96
748.499	22249.29
748.677	22300.49
748.856	22353.74
749.035	22251.34
749.214	22517.57
749.393	22437.7
749.572	22675.27
749.75	22024.01
749.929	22505.29
750.108	22114.12
750.287	22685.51
750.465	22013.77
750.644	22540.1
750.823	22470.47
751.001	22456.13
751.18	22243.15
751.359	22544.2
751.537	22185.8
751.716	22269.77
751.894	22019.92
752.073	22333.26
752.251	21966.67
752.43	21774.16
752.609	21516.12
752.787	21909.33
752.966	21743.44
753.144	21790.55
753.322	21827.41
753.501	21802.83
753.679	21585.75
753.858	22269.77
754.036	21718.87
754.215	21837.65
754.393	21981.01
754.571	21790.55
754.75	21714.77
754.928	21946.19
755.106	21686.1
755.284	21790.55
755.463	21421.91
755.641	21714.77
755.819	21585.75
755.997	21813.07
756.176	21391.19
756.354	21872.46
756.532	21200.73
756.71	21569.36
756.888	21069.66
757.066	21595.99
757.245	21137.24
757.423	21452.63
757.601	21129.05
757.779	21346.14
757.957	21198.68
758.135	21063.52
758.313	20844.38
758.491	21405.53
758.669	20819.81
758.847	20698.98
759.025	20365.16
759.203	20451.17
759.381	20377.45
759.559	20334.44
759.737	20428.65
759.915	20653.92
760.092	19949.42
760.27	20569.96
760.448	20125.55
760.626	20168.55
760.804	19705.71
760.981	19937.13
761.159	19335.03
761.337	19939.18
761.515	19525.49
761.692	19611.51
761.87	19656.56
762.048	19971.95
762.226	19345.27
762.403	19527.54
762.581	18974.59
762.759	19394.42
762.936	18976.64
763.114	18839.42
763.291	18495.36
763.469	18763.65
763.647	17921.93
763.824	18128.78
764.002	18059.15
764.179	18251.66
764.357	17676.18
764.534	18116.49
764.712	17551.25
764.889	17573.78
765.066	17268.63
765.244	16949.15
765.421	16689.05
765.599	16793.5
765.776	16797.6
765.953	16566.18
766.131	16316.32
766.308	16627.62
766.485	16347.04
766.663	16345
766.84	16289.7
767.017	16287.65
767.194	16023.47
767.372	16099.24
767.549	15912.87
767.726	15759.28
767.903	15370.16
768.081	15302.58
768.258	15058.87
768.435	15032.25
768.612	14884.79
768.789	14835.64
768.966	14653.37
769.143	14702.53
769.32	14497.73
769.497	14409.67
769.674	14137.29
769.851	14211.01
770.028	13836.23
770.205	13807.56
770.382	13664.21
770.559	13961.16
770.736	13539.28
770.913	13477.84
771.09	13443.02
771.267	13191.12
771.444	13068.25
771.621	13287.38
771.798	12885.98
771.975	12959.7
772.151	12433.38
772.328	12443.62
772.505	12251.11
772.682	12107.75
772.859	11675.63
773.035	12107.75
773.212	11685.87
773.389	11671.53
773.565	11216.88
773.742	11243.51
773.919	11306.99
774.096	11184.11
774.272	11067.38
774.449	10842.1
774.625	10852.34
774.802	10688.51
774.979	10493.95
775.155	10600.44
775.332	10362.88
775.508	10297.34
775.685	10059.78
775.861	10035.2
776.038	10035.2
776.214	9932.81
776.391	9859.08
776.567	9900.04
776.744	9678.86
776.92	9734.15
777.096	9725.96
777.273	9482.25
777.449	9220.11
777.626	9246.74
777.802	9066.52
777.978	9099.28
778.155	8814.62
778.331	8818.71
778.507	8613.91
778.683	8689.69
778.86	8587.29
779.036	8437.79
779.212	8335.39
779.388	8443.93
779.565	8212.51
779.741	8112.16
779.917	8040.48
780.093	7841.83
780.269	7921.7
780.445	7766.06
780.621	7712.81
780.797	7807.01
780.974	7370.8
781.15	7569.45
781.326	7563.31
781.502	7456.81
781.678	7309.36
781.854	7274.54
782.03	7233.58
782.206	7168.05
782.382	7018.55
782.558	7028.79
782.733	6946.87
782.909	6983.73
783.085	6817.85
783.261	6651.96
783.437	6752.31
783.613	6889.52
783.789	6703.16
783.965	6770.74
784.14	6684.73
784.316	6758.45
784.492	6377.53
784.668	6395.96
784.843	6389.82
785.019	6295.61
785.195	6250.56
785.371	6223.93
785.546	6008.9
785.722	6037.57
785.898	5869.64
786.073	6127.68
786.249	5802.05
786.424	5642.31
786.6	5728.33
786.776	5746.76
786.951	5550.15
787.127	5388.36
787.302	5439.56
787.478	5580.87
787.653	5410.89
787.829	5417.03
788.004	5070.93
788.18	5154.89
788.355	5048.4
788.531	5228.62
788.706	4974.67
788.881	5099.6
789.057	4925.52
789.232	4948.05
789.408	4673.62
789.583	4747.35
789.758	4685.91
789.934	4845.65
790.109	4669.53
790.284	4614.23
790.459	4554.84
790.635	4653.14
790.81	4554.84
790.985	4350.04
791.16	4350.04
791.336	4345.95
791.511	4350.04
791.686	4259.93
791.861	4151.39
792.036	4345.95
792.211	4190.3
792.387	4063.33
792.562	4194.4
792.737	3989.6
792.912	3991.65
793.087	3868.77
793.262	3891.3
793.437	3829.86
793.612	3833.96
793.787	3749.99
793.962	3762.28
794.137	3850.34
794.312	3803.24
794.487	3743.84
794.662	3663.97
794.837	3684.45
795.011	3620.97
795.186	3563.62
795.361	3487.85
795.536	3684.45
795.711	3604.58
795.886	3549.29
796.06	3457.13
796.235	3457.13
796.41	3407.98
796.585	3534.95
796.76	3301.48
796.934	3190.89
797.109	3227.76
797.284	3461.22
797.458	3162.22
797.633	3213.42
797.808	3186.8
797.982	3145.84
798.157	3203.18
798.332	3154.03
798.506	3108.97
798.681	3006.58
798.855	2924.66
799.03	3031.15
799.204	3113.07
799.379	3000.43
799.553	2924.66
799.728	3002.48
799.902	2889.84
800.077	2961.52
800.251	2941.04
800.426	2908.27
800.6	2711.67
800.775	2850.93
800.949	2627.7
801.123	2777.2
801.298	2787.44
801.472	2623.61
801.647	2740.34
801.821	2697.33
801.995	2740.34
802.169	2648.18
802.344	2678.9
802.518	2726
802.692	2680.95
802.867	2703.48
803.041	2785.4
803.215	2592.89
803.389	2566.26
803.563	2596.98
803.737	2543.73
803.912	2513.02
804.086	2482.3
804.26	2478.2
804.434	2449.53
804.608	2470.01
804.782	2449.53
804.956	2594.93
805.13	2318.46
805.304	2572.41
805.478	2506.87
805.652	2484.34
805.826	2416.76
806	2519.16
806.174	2318.46
806.348	2402.42
806.522	2420.86
806.696	2338.94
806.87	2334.84
807.044	2336.89
807.218	2314.36
807.392	2246.78
807.566	2363.51
807.739	2414.71
807.913	2400.38
808.087	2343.03
808.261	2263.16
808.435	2465.91
808.608	2226.3
808.782	2396.28
808.956	2287.74
809.13	2400.38
809.303	2304.12
809.477	2273.4
809.651	2277.5
809.824	2377.85
809.998	2326.65
810.172	2302.07
810.345	2252.92
810.519	2261.12
810.692	2295.93
810.866	2226.3
811.04	2193.53
811.213	2224.25
811.387	2377.85
811.56	2306.17
811.734	2363.51
811.907	2162.81
812.081	2336.89
812.254	2248.83
812.428	2336.89
812.601	2242.68
812.774	2289.79
812.948	2388.09
813.121	2228.35
813.295	2287.74
813.468	2271.35
813.641	2246.78
813.815	2236.54
813.988	2318.46
814.161	2269.31
814.335	2304.12
814.508	2250.88
814.681	2269.31
814.854	2277.5
815.028	2248.83
815.201	2211.96
815.374	2302.07
815.547	2261.12
815.72	2252.92
815.894	2214.01
816.067	2089.09
816.24	2183.29
816.413	2242.68
816.586	2216.06
816.759	2148.48
816.932	2109.57
817.105	2207.87
817.278	2060.41
817.452	2080.89
817.625	2234.49
817.798	2109.57
817.971	2228.35
818.144	2236.54
818.317	2228.35
818.49	2166.91
818.662	2228.35
818.835	2162.81
819.008	2168.96
819.181	2322.55
819.354	2107.52
819.527	2211.96
819.7	2130.05
819.873	2179.2
820.046	2101.37
820.218	2121.85
820.391	2056.32
820.564	2117.76
820.737	2211.96
820.909	2248.83
821.082	2166.91
821.255	2171
821.428	2140.28
821.6	2195.58
821.773	2025.6
821.946	2140.28
822.118	2015.36
822.291	2060.41
822.464	2089.09
822.636	2089.09
822.809	2150.52
822.982	2248.83
823.154	2097.28
823.327	2140.28
823.499	2109.57
823.672	2128
823.844	2080.89
824.017	2154.62
824.189	2138.24
824.362	2113.66
824.534	2015.36
824.707	2076.8
824.879	2066.56
825.052	2216.06
825.224	2003.07
825.396	2095.23
825.569	2218.11
825.741	2164.86
825.914	2191.48
826.086	2017.41
826.258	2214.01
826.431	2078.85
826.603	2154.62
826.775	2181.24
826.947	1984.64
827.12	2066.56
827.292	2128
827.464	2062.46
827.636	1992.83
827.809	1998.98
827.981	2095.23
828.153	2019.45
828.325	1996.93
828.497	2035.84
828.669	2013.31
828.842	2025.6
829.014	1964.16
829.186	2021.5
829.358	2062.46
829.53	1904.77
829.702	2056.32
829.874	2070.65
830.046	1912.96
830.218	1925.25
830.39	2031.74
830.562	2019.45
830.734	2023.55
830.906	2023.55
831.078	1933.44
831.25	1921.15
831.422	2011.26
831.594	2099.33
831.766	1998.98
831.937	1861.76
832.109	1915.01
832.281	2001.02
832.453	1925.25
832.625	1837.19
832.797	1841.28
832.968	1966.21
833.14	1867.91
833.312	1872
833.484	1814.66
833.655	1874.05
833.827	1826.95
833.999	1898.62
834.171	1788.03
834.342	1986.69
834.514	1921.15
834.686	1831.04
834.857	1906.82
835.029	1781.89
835.2	1794.18
835.372	1777.79
835.544	1828.99
835.715	1908.86
835.887	1835.14
836.058	1794.18
836.23	1804.42
836.401	1820.8
836.573	1794.18
836.744	1837.19
836.916	1781.89
837.087	1785.99
837.259	1761.41
837.43	1763.46
837.602	1656.96
837.773	1720.45
837.945	1679.49
838.116	1738.88
838.287	1820.8
838.459	1697.92
838.63	1736.84
838.801	1806.47
838.973	1699.97
839.144	1689.73
839.315	1716.36
839.487	1767.55
839.658	1638.53
839.829	1683.59
840	1714.31
840.172	1779.84
840.343	1761.41
840.514	1708.16
840.685	1712.26
840.856	1716.36
841.027	1728.64
841.199	1724.55
841.37	1710.21
841.541	1622.15
841.712	1736.84
841.883	1798.27
842.054	1597.57
842.225	1544.33
842.396	1747.07
842.567	1618.05
842.738	1605.77
842.909	1503.37
843.08	1681.54
843.251	1605.77
843.422	1626.24
843.593	1603.72
843.764	1630.34
843.935	1671.3
844.106	1646.72
844.277	1550.47
844.448	1589.38
844.619	1646.72
844.79	1575.05
844.96	1468.55
845.131	1532.04
845.302	1622.15
845.473	1548.42
845.644	1521.8
845.814	1415.3
845.985	1540.23
846.156	1525.89
846.327	1534.09
846.497	1425.54
846.668	1482.89
846.839	1345.67
847.01	1456.26
847.18	1396.87
847.351	1267.85
847.522	1339.53
847.692	1362.06
847.863	1366.15
848.033	1517.7
848.204	1353.86
848.375	1314.95
848.545	1329.29
848.716	1390.73
848.886	1396.87
849.057	1339.53
849.227	1286.28
849.398	1345.67
849.568	1306.76
849.739	1278.09
849.909	1220.75
850.08	1179.79
850.25	1204.36
850.421	1298.57
850.591	1280.14
850.761	1259.66
850.932	1224.84
851.102	1253.51
851.272	1253.51
851.443	1255.56
851.613	1230.99
851.783	1245.32
851.954	1204.36
852.124	1222.79
852.294	1185.93
852.465	1187.98
852.635	1228.94
852.805	1214.6
852.975	1171.6
853.145	1089.68
853.316	1116.3
853.486	1110.16
853.656	1212.56
853.826	1028.24
853.996	1147.02
854.166	1040.53
854.337	1120.4
854.507	1134.73
854.677	1118.35
854.847	1048.72
855.017	1110.16
855.187	1153.16
855.357	1056.91
855.527	1132.68
855.697	970.89
855.867	997.52
856.037	1065.1
856.207	954.51
856.377	1009.81
856.547	1073.29
856.717	1026.19
856.887	960.65
857.057	1015.95
857.227	948.37
857.397	936.08
857.566	1028.24
857.736	934.03
857.906	993.42
858.076	907.41
858.246	989.33
858.416	983.18
858.585	897.17
858.755	876.69
858.925	983.18
859.095	864.4
859.264	952.46
859.434	966.8
859.604	909.46
859.774	917.65
859.943	934.03
860.113	913.55
860.283	872.59
860.452	888.98
860.622	913.55
860.791	864.4
860.961	956.56
861.131	809.11
861.3	960.65
861.47	909.46
861.639	848.02
861.809	774.29
861.978	874.64
862.148	833.68
862.318	805.01
862.487	895.12
862.657	866.45
862.826	872.59
862.995	825.49
863.165	911.5
863.334	768.15
863.504	786.58
863.673	852.11
863.843	753.81
864.012	850.06
864.181	757.91
864.351	813.2
864.52	837.78
864.689	831.63
864.859	786.58
865.028	827.54
865.197	788.63
865.366	786.58
865.536	745.62
865.705	778.39
865.874	780.43
866.043	782.48
866.213	815.25
866.382	694.42
866.551	774.29
866.72	731.28
866.889	770.19
867.059	739.47
867.228	739.47
867.397	798.87
867.566	753.81
867.735	692.37
867.904	704.66
868.073	747.67
868.242	786.58
868.411	778.39
868.58	665.75
868.749	688.28
868.918	649.36
869.087	729.23
869.256	794.77
869.425	757.91
869.594	659.6
869.763	680.08
869.932	673.94
870.101	770.19
870.27	639.12
870.439	675.99
870.608	661.65
870.777	671.89
870.945	622.74
871.114	710.8
871.283	647.32
871.452	579.73
871.621	581.78
871.789	622.74
871.958	655.51
872.127	622.74
872.296	639.12
872.464	657.56
872.633	567.44
872.802	643.22
872.971	637.08
873.139	630.93
873.308	639.12
873.477	708.75
873.645	594.07
873.814	583.83
873.983	594.07
874.151	682.13
874.32	641.17
874.488	686.23
874.657	610.45
874.826	624.79
874.994	612.5
875.163	622.74
875.331	594.07
875.5	630.93
875.668	643.22
875.837	622.74
876.005	622.74
876.174	598.16
876.342	624.79
876.51	616.6
876.679	565.4
876.847	565.4
877.016	516.25
877.184	612.5
877.352	577.68
877.521	528.53
877.689	546.97
877.857	565.4
878.026	655.51
878.194	622.74
878.362	571.54
878.531	635.03
878.699	518.29
878.867	442.52
879.036	581.78
879.204	569.49
879.372	497.81
879.54	610.45
879.708	503.96
879.877	561.3
880.045	526.49
880.213	575.64
880.381	475.29
880.549	479.38
880.717	495.77
880.885	567.44
881.054	534.68
881.222	544.92
881.39	508.05
881.558	460.95
881.726	499.86
881.894	508.05
882.062	516.25
882.23	442.52
882.398	534.68
882.566	491.67
882.734	475.29
882.902	475.29
883.07	463
883.238	503.96
883.406	581.78
883.574	436.37
883.741	485.53
883.909	514.2
884.077	432.28
884.245	438.42
884.413	471.19
884.581	512.15
884.749	532.63
884.916	522.39
885.084	483.48
885.252	579.73
885.42	479.38
885.587	530.58
885.755	542.87
885.923	565.4
886.091	518.29
886.258	452.76
886.426	526.49
886.594	452.76
886.761	524.44
886.929	559.25
887.097	540.82
887.264	499.86
887.432	491.67
887.6	467.09
887.767	553.11
887.935	518.29
888.102	551.06
888.27	428.18
888.438	442.52
888.605	532.63
888.773	497.81
888.94	475.29
889.108	469.14
889.275	485.53
889.443	469.14
889.61	419.99
889.778	485.53
889.945	553.11
890.112	460.95
890.28	454.81
890.447	393.37
890.615	426.14
890.782	499.86
890.949	456.85
891.117	401.56
891.284	485.53
891.452	559.25
891.619	522.39
891.786	430.23
891.953	485.53
892.121	520.34
892.288	508.05
892.455	508.05
892.623	422.04
892.79	503.96
892.957	516.25
893.124	469.14
893.291	452.76
893.459	512.15
893.626	534.68
893.793	401.56
893.96	491.67
894.127	526.49
894.294	475.29
894.461	426.14
894.629	475.29
894.796	452.76
894.963	446.61
895.13	428.18
895.297	456.85
895.464	524.44
895.631	442.52
895.798	549.01
895.965	508.05
896.132	491.67
896.299	467.09
896.466	471.19
896.633	442.52
896.8	446.61
896.967	436.37
897.134	458.9
897.301	483.48
897.467	442.52
897.634	483.48
897.801	438.42
897.968	366.74
898.135	493.72
898.302	450.71
898.469	450.71
898.635	403.61
898.802	442.52
898.969	417.94
899.136	401.56
899.303	532.63
