Data from light_USB4E013581_00001.txt Node
Date: Wed May 08 15:04:40 EDT 2019
User: dh1006
Spectrometer: USB4E01358
Autoset integration time: false
Trigger mode: 4
Integration Time (sec): 2.925000E-2
Scans to average: 1
Electric dark correction enabled: true
Nonlinearity correction enabled: false
Boxcar width: 0
Stray light correction enabled: false
XAxis mode: Wavelengths
Stop averaging: false
Number of Pixels in Spectrum: 3648
>>>>>Begin Spectral Data<<<<<
176.727	-15.12
176.966	-15.12
177.205	-15.12
177.444	-39.7
177.683	-92.95
177.922	68.84
178.161	68.84
178.4	44.27
178.638	52.46
178.877	-43.8
179.116	-4.88
179.355	21.74
179.593	-29.46
179.832	50.41
180.071	1.26
180.309	-8.98
180.548	58.6
180.786	-23.32
181.025	-13.08
181.263	91.37
181.502	144.62
181.74	56.56
181.979	107.75
182.217	77.04
182.456	138.47
182.694	70.89
182.932	77.04
183.17	74.99
183.409	58.6
183.647	142.57
183.885	50.41
184.123	70.89
184.361	132.33
184.6	91.37
184.838	128.23
185.076	124.14
185.314	140.52
185.552	34.03
185.79	124.14
186.028	38.12
186.266	124.14
186.503	77.04
186.741	107.75
186.979	107.75
187.217	77.04
187.455	85.23
187.693	52.46
187.93	52.46
188.168	99.56
188.406	9.45
188.643	21.74
188.881	36.08
189.119	117.99
189.356	101.61
189.594	83.18
189.831	87.27
190.069	167.15
190.306	-23.32
190.543	101.61
190.781	85.23
191.018	124.14
191.256	87.27
191.493	72.94
191.73	44.27
191.967	93.42
192.205	5.36
192.442	40.17
192.679	117.99
192.916	77.04
193.153	95.47
193.39	122.09
193.628	79.08
193.865	46.32
194.102	91.37
194.339	85.23
194.576	111.85
194.813	148.71
195.049	62.7
195.286	109.8
195.523	21.74
195.76	128.23
195.997	95.47
196.234	50.41
196.47	66.8
196.707	42.22
196.944	66.8
197.18	70.89
197.417	128.23
197.654	99.56
197.89	117.99
198.127	83.18
198.363	99.56
198.6	195.82
198.836	68.84
199.073	142.57
199.309	70.89
199.546	105.71
199.782	126.19
200.018	87.27
200.255	97.51
200.491	54.51
200.727	70.89
200.963	44.27
201.199	85.23
201.436	50.41
201.672	89.32
201.908	50.41
202.144	89.32
202.38	83.18
202.616	58.6
202.852	66.8
203.088	56.56
203.324	109.8
203.56	128.23
203.796	169.19
204.032	195.82
204.268	126.19
204.503	66.8
204.739	101.61
204.975	58.6
205.211	83.18
205.446	27.88
205.682	132.33
205.918	140.52
206.153	58.6
206.389	34.03
206.625	95.47
206.86	74.99
207.096	107.75
207.331	165.1
207.567	74.99
207.802	140.52
208.037	179.43
208.273	34.03
208.508	134.38
208.744	83.18
208.979	66.8
209.214	50.41
209.449	74.99
209.685	115.95
209.92	66.8
210.155	99.56
210.39	148.71
210.625	142.57
210.86	142.57
211.095	74.99
211.33	85.23
211.565	42.22
211.8	120.04
212.035	83.18
212.27	99.56
212.505	95.47
212.74	111.85
212.975	44.27
213.21	107.75
213.444	103.66
213.679	148.71
213.914	122.09
214.149	105.71
214.383	124.14
214.618	124.14
214.853	101.61
215.087	206.06
215.322	79.08
215.556	58.6
215.791	50.41
216.025	156.91
216.26	54.51
216.494	91.37
216.729	128.23
216.963	109.8
217.197	58.6
217.432	107.75
217.666	68.84
217.9	109.8
218.135	83.18
218.369	115.95
218.603	107.75
218.837	42.22
219.071	54.51
219.306	99.56
219.54	70.89
219.774	46.32
220.008	3.31
220.242	146.67
220.476	50.41
220.71	93.42
220.944	42.22
221.178	70.89
221.411	68.84
221.645	34.03
221.879	99.56
222.113	95.47
222.347	91.37
222.58	103.66
222.814	79.08
223.048	136.43
223.281	195.82
223.515	101.61
223.749	72.94
223.982	85.23
224.216	113.9
224.449	103.66
224.683	50.41
224.916	175.34
225.15	99.56
225.383	66.8
225.617	105.71
225.85	99.56
226.083	132.33
226.317	38.12
226.55	79.08
226.783	91.37
227.016	11.5
227.25	58.6
227.483	93.42
227.716	79.08
227.949	74.99
228.182	48.36
228.415	87.27
228.648	120.04
228.881	60.65
229.114	126.19
229.347	85.23
229.58	31.98
229.813	97.51
230.046	95.47
230.279	140.52
230.512	79.08
230.745	173.29
230.977	95.47
231.21	117.99
231.443	144.62
231.675	79.08
231.908	134.38
232.141	107.75
232.373	156.91
232.606	111.85
232.839	150.76
233.071	138.47
233.304	83.18
233.536	81.13
233.769	101.61
234.001	103.66
234.233	34.03
234.466	115.95
234.698	68.84
234.93	44.27
235.163	83.18
235.395	70.89
235.627	173.29
235.86	74.99
236.092	115.95
236.324	144.62
236.556	40.17
236.788	113.9
237.02	124.14
237.252	103.66
237.484	103.66
237.716	128.23
237.948	74.99
238.18	87.27
238.412	107.75
238.644	101.61
238.876	156.91
239.108	105.71
239.34	79.08
239.571	91.37
239.803	64.75
240.035	70.89
240.267	132.33
240.498	95.47
240.73	101.61
240.962	126.19
241.193	167.15
241.425	132.33
241.656	173.29
241.888	70.89
242.119	156.91
242.351	66.8
242.582	128.23
242.814	25.84
243.045	105.71
243.277	120.04
243.508	66.8
243.739	15.6
243.971	197.87
244.202	197.87
244.433	124.14
244.664	103.66
244.896	230.63
245.127	111.85
245.358	60.65
245.589	107.75
245.82	103.66
246.051	132.33
246.282	120.04
246.513	58.6
246.744	68.84
246.975	120.04
247.206	126.19
247.437	58.6
247.668	101.61
247.899	70.89
248.129	54.51
248.36	70.89
248.591	91.37
248.822	74.99
249.052	197.87
249.283	70.89
249.514	122.09
249.744	128.23
249.975	156.91
250.206	70.89
250.436	134.38
250.667	109.8
250.897	91.37
251.128	68.84
251.358	120.04
251.589	95.47
251.819	91.37
252.049	117.99
252.28	97.51
252.51	115.95
252.74	120.04
252.971	107.75
253.201	146.67
253.431	56.56
253.661	101.61
253.891	42.22
254.121	99.56
254.352	128.23
254.582	85.23
254.812	101.61
255.042	42.22
255.272	158.95
255.502	54.51
255.732	124.14
255.962	132.33
256.192	128.23
256.421	144.62
256.651	83.18
256.881	154.86
257.111	115.95
257.341	85.23
257.57	54.51
257.8	68.84
258.03	29.93
258.259	111.85
258.489	111.85
258.719	85.23
258.948	38.12
259.178	140.52
259.407	74.99
259.637	136.43
259.866	146.67
260.096	34.03
260.325	95.47
260.555	70.89
260.784	66.8
261.013	62.7
261.243	91.37
261.472	134.38
261.701	115.95
261.931	85.23
262.16	115.95
262.389	83.18
262.618	140.52
262.847	79.08
263.076	93.42
263.305	83.18
263.535	74.99
263.764	103.66
263.993	42.22
264.222	128.23
264.451	19.69
264.679	79.08
264.908	109.8
265.137	66.8
265.366	62.7
265.595	77.04
265.824	117.99
266.053	165.1
266.281	146.67
266.51	83.18
266.739	109.8
266.967	66.8
267.196	95.47
267.425	142.57
267.653	52.46
267.882	128.23
268.11	50.41
268.339	142.57
268.567	52.46
268.796	124.14
269.024	113.9
269.253	171.24
269.481	60.65
269.709	140.52
269.938	99.56
270.166	91.37
270.394	79.08
270.623	148.71
270.851	115.95
271.079	107.75
271.307	50.41
271.535	74.99
271.764	140.52
271.992	120.04
272.22	91.37
272.448	130.28
272.676	87.27
272.904	83.18
273.132	148.71
273.36	115.95
273.588	111.85
273.816	165.1
274.043	95.47
274.271	169.19
274.499	83.18
274.727	173.29
274.955	103.66
275.182	93.42
275.41	124.14
275.638	167.15
275.866	136.43
276.093	107.75
276.321	87.27
276.548	120.04
276.776	156.91
277.003	83.18
277.231	124.14
277.458	120.04
277.686	91.37
277.913	177.39
278.141	142.57
278.368	79.08
278.595	101.61
278.823	83.18
279.05	115.95
279.277	115.95
279.505	126.19
279.732	101.61
279.959	165.1
280.186	83.18
280.413	42.22
280.641	169.19
280.868	191.72
281.095	87.27
281.322	52.46
281.549	165.1
281.776	132.33
282.003	83.18
282.23	62.7
282.457	117.99
282.683	77.04
282.91	87.27
283.137	42.22
283.364	201.96
283.591	124.14
283.818	150.76
284.044	115.95
284.271	95.47
284.498	46.32
284.724	60.65
284.951	60.65
285.178	74.99
285.404	74.99
285.631	50.41
285.857	81.13
286.084	136.43
286.31	46.32
286.537	195.82
286.763	93.42
286.99	120.04
287.216	124.14
287.442	173.29
287.669	109.8
287.895	107.75
288.121	93.42
288.347	101.61
288.574	93.42
288.8	79.08
289.026	93.42
289.252	120.04
289.478	124.14
289.704	91.37
289.931	111.85
290.157	70.89
290.383	29.93
290.609	120.04
290.835	99.56
291.06	189.67
291.286	165.1
291.512	173.29
291.738	115.95
291.964	29.93
292.19	99.56
292.416	124.14
292.641	93.42
292.867	144.62
293.093	107.75
293.319	152.81
293.544	95.47
293.77	34.03
293.995	93.42
294.221	42.22
294.447	95.47
294.672	111.85
294.898	126.19
295.123	158.95
295.349	58.6
295.574	60.65
295.799	140.52
296.025	142.57
296.25	81.13
296.476	97.51
296.701	142.57
296.926	158.95
297.151	77.04
297.377	120.04
297.602	99.56
297.827	117.99
298.052	99.56
298.277	91.37
298.502	44.27
298.727	77.04
298.953	126.19
299.178	132.33
299.403	95.47
299.628	111.85
299.852	79.08
300.077	124.14
300.302	177.39
300.527	109.8
300.752	142.57
300.977	165.1
301.202	74.99
301.426	115.95
301.651	120.04
301.876	148.71
302.101	111.85
302.325	140.52
302.55	66.8
302.775	72.94
302.999	58.6
303.224	93.42
303.448	97.51
303.673	83.18
303.897	189.67
304.122	111.85
304.346	99.56
304.571	74.99
304.795	58.6
305.019	152.81
305.244	70.89
305.468	124.14
305.692	101.61
305.917	91.37
306.141	85.23
306.365	136.43
306.589	107.75
306.813	50.41
307.038	99.56
307.262	87.27
307.486	134.38
307.71	140.52
307.934	142.57
308.158	148.71
308.382	83.18
308.606	181.48
308.83	185.58
309.054	42.22
309.278	19.69
309.502	132.33
309.725	148.71
309.949	111.85
310.173	158.95
310.397	91.37
310.62	107.75
310.844	165.1
311.068	87.27
311.292	25.84
311.515	95.47
311.739	128.23
311.962	105.71
312.186	148.71
312.41	120.04
312.633	140.52
312.857	40.17
313.08	161
313.303	42.22
313.527	167.15
313.75	117.99
313.974	117.99
314.197	136.43
314.42	126.19
314.644	103.66
314.867	142.57
315.09	171.24
315.313	130.28
315.536	85.23
315.76	152.81
315.983	105.71
316.206	117.99
316.429	126.19
316.652	74.99
316.875	103.66
317.098	81.13
317.321	183.53
317.544	161
317.767	169.19
317.99	36.08
318.213	197.87
318.436	97.51
318.658	107.75
318.881	128.23
319.104	124.14
319.327	122.09
319.55	87.27
319.772	138.47
319.995	140.52
320.218	122.09
320.44	101.61
320.663	195.82
320.885	72.94
321.108	148.71
321.331	101.61
321.553	134.38
321.776	132.33
321.998	42.22
322.22	144.62
322.443	117.99
322.665	120.04
322.888	148.71
323.11	124.14
323.332	25.84
323.555	122.09
323.777	158.95
323.999	130.28
324.221	144.62
324.443	99.56
324.666	140.52
324.888	150.76
325.11	175.34
325.332	132.33
325.554	93.42
325.776	140.52
325.998	124.14
326.22	120.04
326.442	173.29
326.664	99.56
326.886	175.34
327.108	29.93
327.33	109.8
327.551	152.81
327.773	161
327.995	124.14
328.217	60.65
328.439	81.13
328.66	177.39
328.882	140.52
329.104	109.8
329.325	120.04
329.547	126.19
329.769	109.8
329.99	189.67
330.212	36.08
330.433	115.95
330.655	140.52
330.876	140.52
331.098	99.56
331.319	46.32
331.54	132.33
331.762	148.71
331.983	89.32
332.204	132.33
332.426	181.48
332.647	107.75
332.868	34.03
333.089	107.75
333.311	91.37
333.532	134.38
333.753	79.08
333.974	81.13
334.195	126.19
334.416	107.75
334.637	95.47
334.858	124.14
335.079	87.27
335.3	191.72
335.521	156.91
335.742	136.43
335.963	169.19
336.184	173.29
336.405	103.66
336.626	74.99
336.846	87.27
337.067	169.19
337.288	134.38
337.509	101.61
337.729	99.56
337.95	126.19
338.171	124.14
338.391	165.1
338.612	140.52
338.833	156.91
339.053	136.43
339.274	150.76
339.494	115.95
339.715	66.8
339.935	70.89
340.156	165.1
340.376	115.95
340.596	124.14
340.817	91.37
341.037	152.81
341.257	117.99
341.478	161
341.698	115.95
341.918	132.33
342.138	138.47
342.359	152.81
342.579	113.9
342.799	185.58
343.019	95.47
343.239	83.18
343.459	107.75
343.679	101.61
343.899	122.09
344.119	142.57
344.339	128.23
344.559	93.42
344.779	66.8
344.999	91.37
345.219	79.08
345.439	66.8
345.658	99.56
345.878	74.99
346.098	115.95
346.318	115.95
346.537	140.52
346.757	230.63
346.977	99.56
347.196	183.53
347.416	83.18
347.636	222.44
347.855	165.1
348.075	136.43
348.294	89.32
348.514	177.39
348.733	181.48
348.953	111.85
349.172	42.22
349.392	85.23
349.611	103.66
349.83	93.42
350.05	158.95
350.269	148.71
350.488	161
350.707	115.95
350.927	136.43
351.146	62.7
351.365	115.95
351.584	120.04
351.803	134.38
352.023	126.19
352.242	117.99
352.461	70.89
352.68	83.18
352.899	124.14
353.118	109.8
353.337	228.58
353.556	91.37
353.775	64.75
353.993	99.56
354.212	152.81
354.431	142.57
354.65	142.57
354.869	105.71
355.088	105.71
355.306	156.91
355.525	66.8
355.744	124.14
355.962	83.18
356.181	169.19
356.4	115.95
356.618	181.48
356.837	103.66
357.055	124.14
357.274	99.56
357.492	105.71
357.711	107.75
357.929	144.62
358.148	148.71
358.366	120.04
358.585	115.95
358.803	124.14
359.021	120.04
359.24	148.71
359.458	91.37
359.676	132.33
359.894	138.47
360.113	93.42
360.331	113.9
360.549	144.62
360.767	140.52
360.985	161
361.203	148.71
361.421	115.95
361.639	126.19
361.857	83.18
362.075	214.25
362.293	144.62
362.511	109.8
362.729	146.67
362.947	146.67
363.165	144.62
363.383	89.32
363.601	62.7
363.819	189.67
364.036	169.19
364.254	101.61
364.472	167.15
364.689	144.62
364.907	54.51
365.125	103.66
365.342	156.91
365.56	144.62
365.778	181.48
365.995	91.37
366.213	111.85
366.43	148.71
366.648	91.37
366.865	140.52
367.083	115.95
367.3	115.95
367.517	175.34
367.735	142.57
367.952	99.56
368.17	136.43
368.387	161
368.604	138.47
368.821	144.62
369.039	111.85
369.256	29.93
369.473	144.62
369.69	161
369.907	140.52
370.124	167.15
370.341	70.89
370.558	185.58
370.776	140.52
370.993	109.8
371.21	99.56
371.426	87.27
371.643	144.62
371.86	144.62
372.077	107.75
372.294	99.56
372.511	124.14
372.728	140.52
372.945	87.27
373.161	165.1
373.378	134.38
373.595	128.23
373.811	165.1
374.028	115.95
374.245	165.1
374.461	103.66
374.678	156.91
374.895	177.39
375.111	46.32
375.328	134.38
375.544	167.15
375.761	187.63
375.977	158.95
376.194	163.05
376.41	111.85
376.626	115.95
376.843	181.48
377.059	99.56
377.275	132.33
377.492	173.29
377.708	148.71
377.924	146.67
378.14	115.95
378.357	189.67
378.573	165.1
378.789	152.81
379.005	156.91
379.221	85.23
379.437	185.58
379.653	91.37
379.869	173.29
380.085	99.56
380.301	144.62
380.517	230.63
380.733	183.53
380.949	134.38
381.165	173.29
381.381	156.91
381.597	148.71
381.813	120.04
382.028	158.95
382.244	140.52
382.46	197.87
382.676	199.91
382.891	134.38
383.107	152.81
383.323	222.44
383.538	193.77
383.754	218.34
383.969	111.85
384.185	222.44
384.4	158.95
384.616	148.71
384.831	189.67
385.047	136.43
385.262	210.15
385.478	197.87
385.693	230.63
385.909	152.81
386.124	247.02
386.339	197.87
386.554	191.72
386.77	201.96
386.985	193.77
387.2	277.74
387.415	128.23
387.631	161
387.846	128.23
388.061	165.1
388.276	222.44
388.491	206.06
388.706	240.87
388.921	197.87
389.136	230.63
389.351	197.87
389.566	253.16
389.781	181.48
389.996	287.98
390.211	259.3
390.426	208.11
390.641	251.11
390.855	265.45
391.07	263.4
391.285	247.02
391.5	273.64
391.714	257.26
391.929	271.59
392.144	271.59
392.358	253.16
392.573	224.49
392.788	310.5
393.002	310.5
393.217	263.4
393.431	212.2
393.646	316.65
393.86	287.98
394.075	238.82
394.289	292.07
394.504	287.98
394.718	394.47
394.933	312.55
395.147	320.74
395.361	378.09
395.576	353.51
395.79	380.13
396.004	335.08
396.218	443.62
396.432	378.09
396.647	394.47
396.861	419.05
397.075	402.66
397.289	445.67
397.503	462.05
397.717	453.86
397.931	404.71
398.145	373.99
398.359	472.29
398.573	451.81
398.787	390.37
399.001	394.47
399.215	478.44
399.429	558.31
399.643	584.93
399.857	527.59
400.07	562.4
400.284	511.2
400.498	539.88
400.712	546.02
400.925	566.5
401.139	558.31
401.353	574.69
401.566	560.36
401.78	586.98
401.994	550.12
402.207	609.51
402.421	617.7
402.634	722.15
402.848	750.82
403.061	718.05
403.275	734.43
403.488	742.62
403.702	705.76
403.915	713.95
404.128	869.6
404.342	787.68
404.555	814.3
404.768	795.87
404.982	795.87
405.195	888.03
405.408	806.11
405.621	890.08
405.835	928.99
406.048	945.37
406.261	1066.2
406.474	1074.4
406.687	1037.53
406.9	1092.83
407.113	1029.34
407.326	967.9
407.539	1002.72
407.752	1098.97
407.965	1090.78
408.178	1031.39
408.391	1109.21
408.604	1164.51
408.817	1127.64
409.029	1191.13
409.242	1139.93
409.455	1213.66
409.668	1291.48
409.881	1348.82
410.093	1277.14
410.306	1293.53
410.519	1416.41
410.731	1371.35
410.944	1383.64
411.157	1336.54
411.369	1473.75
411.582	1486.04
411.794	1598.68
412.007	1371.35
412.219	1627.35
412.432	1633.49
412.644	1590.48
412.857	1600.72
413.069	1631.44
413.281	1619.16
413.494	1631.44
413.706	1594.58
413.918	1744.08
414.131	1828.05
414.343	1701.07
414.555	1701.07
414.767	1737.94
414.979	1615.06
415.192	1912.02
415.404	1955.02
415.616	1838.29
415.828	1981.65
416.04	1860.82
416.252	1961.17
416.464	1862.86
416.676	2028.75
416.888	2032.85
417.1	1860.82
417.312	1975.5
417.524	2055.37
417.736	2049.23
417.948	2094.28
418.159	2170.06
418.371	2137.29
418.583	2073.8
418.795	2165.96
419.007	2200.78
419.218	2233.55
419.43	2174.16
419.642	2278.6
419.853	2313.42
420.065	2344.14
420.276	2118.86
420.488	2370.76
420.7	2325.7
420.911	2348.23
421.123	2307.27
421.334	2266.31
421.546	2323.66
421.757	2385.1
421.969	2362.57
422.18	2337.99
422.391	2467.01
422.603	2421.96
422.814	2512.07
423.025	2370.76
423.237	2499.78
423.448	2448.58
423.659	2622.66
423.87	2559.17
424.082	2624.71
424.293	2491.59
424.504	2589.89
424.715	2608.32
424.926	2667.72
425.137	2475.21
425.348	2655.43
425.559	2540.74
425.77	2706.63
425.981	2639.04
426.192	2815.17
426.403	2876.61
426.614	2602.18
426.825	2794.69
427.036	2763.97
427.247	2479.3
427.458	2753.73
427.668	2675.91
427.879	2723.01
428.09	2782.4
428.301	2878.66
428.511	2716.87
428.722	2761.92
428.933	2847.94
429.143	2637
429.354	2659.52
429.565	2835.65
429.775	2852.03
429.986	2829.51
430.196	2729.15
430.407	2688.2
430.617	2598.08
430.828	2860.22
431.038	2839.74
431.249	2874.56
431.459	2716.87
431.669	2688.2
431.88	2761.92
432.09	2702.53
432.3	2856.13
432.511	2931.9
432.721	2806.98
432.931	2925.76
433.141	2733.25
433.351	2749.63
433.562	2964.67
433.772	2917.57
433.982	2780.35
434.192	2811.07
434.402	2753.73
434.612	2763.97
434.822	2903.23
435.032	2917.57
435.242	2733.25
435.452	2917.57
435.662	2794.69
435.872	2821.31
436.082	2776.26
436.292	2569.41
436.502	2747.59
436.711	2903.23
436.921	2704.58
437.131	2806.98
437.341	2770.11
437.551	2737.35
437.76	2747.59
437.97	2577.6
438.18	2700.48
438.389	2639.04
438.599	2606.28
438.808	2776.26
439.018	2788.55
439.228	2802.88
439.437	2673.86
439.647	2628.8
439.856	2706.63
440.066	2630.85
440.275	2663.62
440.484	2737.35
440.694	2819.27
440.903	2860.22
441.113	2610.37
441.322	2772.16
441.531	2770.11
441.741	2794.69
441.95	2782.4
442.159	2821.31
442.368	2706.63
442.577	2643.14
442.787	2651.33
442.996	2811.07
443.205	2755.78
443.414	2696.39
443.623	2749.63
443.832	2671.81
444.041	2712.77
444.25	2686.15
444.459	2663.62
444.668	2600.13
444.877	2720.96
445.086	2469.06
445.295	2614.47
445.504	2739.39
445.713	2479.3
445.922	2614.47
446.13	2524.36
446.339	2575.56
446.548	2434.25
446.757	2583.75
446.965	2475.21
447.174	2536.65
447.383	2510.02
447.591	2438.34
447.8	2280.65
448.009	2471.11
448.217	2542.79
448.426	2639.04
448.634	2315.46
448.843	2639.04
449.051	2462.92
449.26	2528.45
449.468	2567.37
449.677	2614.47
449.885	2512.07
450.093	2528.45
450.302	2360.52
450.51	2518.21
450.719	2467.01
450.927	2598.08
451.135	2493.64
451.343	2628.8
451.552	2464.97
451.76	2518.21
451.968	2510.02
452.176	2471.11
452.384	2450.63
452.592	2438.34
452.8	2469.06
453.009	2622.66
453.217	2557.13
453.425	2561.22
453.633	2458.82
453.841	2401.48
454.049	2530.5
454.257	2493.64
454.464	2426.06
454.672	2565.32
454.88	2665.67
455.088	2485.45
455.296	2434.25
455.504	2448.58
455.711	2589.89
455.919	2614.47
456.127	2368.71
456.335	2634.95
456.542	2411.72
456.75	2471.11
456.958	2528.45
457.165	2483.4
457.373	2559.17
457.581	2542.79
457.788	2792.64
457.996	2641.09
458.203	2589.89
458.411	2614.47
458.618	2430.15
458.826	2421.96
459.033	2743.49
459.24	2524.36
459.448	2573.51
459.655	2684.1
459.863	2714.82
460.07	2753.73
460.277	2532.55
460.484	2524.36
460.692	2477.25
460.899	2606.28
461.106	2581.7
461.313	2854.08
461.52	2573.51
461.728	2663.62
461.935	2704.58
462.142	2743.49
462.349	2540.74
462.556	2692.29
462.763	2663.62
462.97	2837.7
463.177	2591.94
463.384	2858.18
463.591	2577.6
463.798	2804.93
464.005	2831.55
464.212	2813.12
464.418	2704.58
464.625	2772.16
464.832	2671.81
465.039	2696.39
465.246	2962.62
465.452	2813.12
465.659	2819.27
465.866	2876.61
466.072	2892.99
466.279	2997.44
466.486	2901.18
466.692	2802.88
466.899	2954.43
467.105	3001.53
467.312	2796.74
467.519	2905.28
467.725	3011.77
467.931	3108.03
468.138	2952.38
468.344	2944.19
468.551	2946.24
468.757	3249.34
468.964	3245.24
469.17	3140.8
469.376	3204.28
469.583	3157.18
469.789	3269.82
469.995	3286.2
470.201	3253.43
470.408	3247.29
470.614	3265.72
470.82	3425.46
471.026	3388.6
471.232	3392.7
471.438	3312.83
471.644	3548.34
471.85	3429.56
472.056	3511.48
472.262	3597.49
472.468	3396.79
472.674	3663.03
472.88	3583.16
473.086	3742.9
473.292	3663.03
473.498	3675.32
473.704	3804.34
473.91	3812.53
474.116	3824.82
474.321	3802.29
474.527	3712.18
474.733	3998.9
474.939	4052.14
475.144	4121.77
475.35	4162.73
475.556	4148.4
475.761	4201.64
475.967	4158.64
476.173	4129.97
476.378	4289.71
476.584	4261.04
476.789	4369.58
476.995	4330.67
477.2	4388.01
477.406	4385.96
477.611	4508.84
477.817	4486.31
478.022	4586.66
478.227	4684.96
478.433	4668.58
478.638	4697.25
478.843	4601
479.049	4676.77
479.254	4861.09
479.459	4828.32
479.664	4965.54
479.87	4998.3
480.075	4951.2
480.28	4983.97
480.485	4867.23
480.69	4983.97
480.895	5069.98
481.1	5178.53
481.306	5192.86
481.511	5293.21
481.716	5319.84
481.921	5108.89
482.126	5352.6
482.33	5407.9
482.535	5473.43
482.74	5438.62
482.945	5461.14
483.15	5541.02
483.355	5551.26
483.56	5743.76
483.765	5756.05
483.969	5803.16
484.174	5719.19
484.379	5776.53
484.583	5805.2
484.788	5958.8
484.993	5797.01
485.197	5741.72
485.402	5868.69
485.607	5831.83
485.811	5977.23
486.016	6018.19
486.22	6112.4
486.425	6059.15
486.629	6132.88
486.834	6136.97
487.038	6104.21
487.243	6266
487.447	6163.6
487.652	6309
487.856	6313.1
488.06	6456.46
488.265	6519.94
488.469	6616.2
488.673	6452.36
488.877	6433.93
489.082	6661.25
489.286	6610.06
489.49	6616.2
489.694	6808.71
489.898	6726.79
490.102	6816.9
490.307	6775.94
490.511	6997.12
490.715	6911.11
490.919	6993.03
491.123	6786.18
491.327	7050.37
491.531	6950.02
491.735	7023.75
491.939	6984.83
492.143	7228.54
492.346	7113.86
492.55	7095.42
492.754	7199.87
492.958	7158.91
493.162	7296.12
493.366	7357.56
493.569	7449.72
493.773	7476.35
493.977	7283.84
494.18	7439.48
494.384	7644.28
494.588	7646.33
494.791	7513.21
494.995	7771.25
495.199	7670.9
495.402	7650.42
495.606	7642.23
495.809	7828.6
496.013	7709.81
496.216	7767.16
496.42	7838.84
496.623	7765.11
496.827	8037.49
497.03	7957.62
497.233	8227.95
497.437	8111.22
497.64	8086.64
497.843	8193.14
498.047	8348.78
498.25	8293.49
498.453	8148.08
498.656	8524.91
498.86	8064.11
499.063	8590.44
499.266	8291.44
499.469	8621.16
499.672	8391.79
499.875	8512.62
500.078	8467.56
500.281	8533.1
500.484	8686.7
500.687	8424.56
500.89	8350.83
501.093	8799.33
501.296	8637.54
501.499	8905.83
501.702	8815.72
501.905	9053.28
502.108	8809.57
502.311	9176.16
502.514	9178.21
502.716	9124.96
502.919	9020.51
503.122	9073.76
503.325	9084
503.527	9503.84
503.73	9155.68
503.933	9389.15
504.135	9442.4
504.338	9536.6
504.541	9552.99
504.743	9561.18
504.946	9647.19
505.148	9749.59
505.351	9522.27
505.553	9843.8
505.756	9755.74
505.958	9718.87
506.161	9819.22
506.363	10015.83
506.565	9800.79
506.768	9921.62
506.97	10036.31
507.172	10093.65
507.375	9948.24
507.577	10255.44
507.779	10271.82
507.982	10257.49
508.184	10441.8
508.386	10462.28
508.588	10495.05
508.79	10466.38
508.993	10622.03
509.195	10980.42
509.397	11043.91
509.599	11138.11
509.801	10986.56
510.003	11187.27
510.205	11166.79
510.407	11228.22
510.609	11097.15
510.811	11254.85
511.013	11172.93
511.215	11383.87
511.417	11695.16
511.618	11734.07
511.82	11715.64
512.022	11635.77
512.224	11748.41
512.426	11770.94
512.627	11988.02
512.829	12051.51
513.031	12133.43
513.233	12448.81
513.434	12522.54
513.636	12602.41
513.838	12651.56
514.039	12469.29
514.241	12649.52
514.442	12848.17
514.644	12952.61
514.845	12973.09
515.047	12895.27
515.248	13259.81
515.45	13288.48
515.651	13509.66
515.853	13378.59
516.054	13845.53
516.256	13847.58
516.457	14091.29
516.658	13665.31
516.86	13743.13
517.061	14226.45
517.262	14337.04
517.463	14361.62
517.665	14664.72
517.866	14799.88
518.067	14468.11
518.268	14861.32
518.469	14652.43
518.67	14806.03
518.872	14840.84
519.073	15145.99
519.274	15318.02
519.475	14965.77
519.676	15225.86
519.877	15418.37
520.078	15526.91
520.279	15232
520.48	16106.49
520.681	15778.81
520.881	15909.88
521.082	15797.24
521.283	16108.53
521.484	15860.73
521.685	16133.11
521.886	16018.42
522.086	16401.39
522.287	16475.12
522.488	16962.54
522.689	16548.85
522.889	16995.3
523.09	16772.08
523.291	16794.6
523.491	17042.41
523.692	17034.22
523.892	17089.51
524.093	17208.29
524.294	17290.21
524.494	17662.94
524.695	17322.98
524.895	17628.13
525.096	17388.51
525.296	17896.41
525.496	17900.51
525.697	17884.12
525.897	17722.33
526.098	18054.1
526.298	17746.91
526.498	18015.19
526.699	18226.13
526.899	18349.01
527.099	18293.72
527.299	18531.28
527.499	18717.65
527.7	18562
527.9	18396.12
528.1	18723.79
528.3	18918.35
528.5	18818
528.7	18889.68
528.9	18811.85
529.1	18768.85
529.3	19315.65
529.5	19139.53
529.7	19416
529.9	18920.4
530.1	19280.84
530.3	19112.9
530.5	19303.37
530.7	19547.07
530.9	19481.54
531.1	19194.82
531.3	19776.45
531.499	19657.66
531.699	20155.32
531.899	19925.95
532.099	20304.82
532.298	20241.34
532.498	20419.51
532.698	20421.56
532.897	20714.42
533.097	20548.53
533.297	21031.85
533.496	20530.1
533.696	20851.63
533.895	20495.28
534.095	20972.46
534.294	20671.41
534.494	21007.28
534.693	20890.54
534.893	21253.03
535.092	21490.6
535.292	21494.69
535.491	21543.84
535.69	21982.11
535.89	21224.36
536.089	21607.33
536.288	21611.43
536.488	21848.99
536.687	21861.28
536.886	21689.25
537.085	22010.78
537.285	21902.24
537.484	21619.62
537.683	22234.01
537.882	22150.04
538.081	22723.47
538.28	22500.24
538.479	22514.58
538.678	22416.28
538.877	22911.89
539.076	22922.13
539.275	23485.32
539.474	23171.98
539.673	23389.06
539.872	23028.62
540.071	23382.92
540.27	23466.89
540.469	23397.26
540.668	23075.72
540.867	23866.24
541.065	23319.43
541.264	23964.54
541.463	23643.01
541.662	24044.41
541.861	23645.06
542.059	24054.65
542.258	24357.75
542.457	24132.48
542.655	24155
542.854	24322.94
543.052	23919.49
543.251	24736.63
543.45	24478.58
543.648	24599.41
543.847	24413.05
544.045	24699.76
544.244	24634.23
544.442	25367.4
544.641	25027.44
544.839	25256.81
545.037	25213.8
545.236	25166.7
545.434	24982.38
545.632	25076.59
545.831	25131.88
546.029	25564.01
546.227	25523.05
546.426	25858.91
546.624	25455.46
546.822	26086.24
547.02	25899.87
547.218	26628.95
547.417	26098.53
547.615	26295.13
547.813	26401.63
548.011	26440.54
548.209	26512.22
548.407	26925.91
548.605	26970.96
548.803	27091.79
549.001	27118.41
549.199	27458.38
549.397	27106.13
549.595	27446.09
549.793	26932.05
549.991	27011.92
550.189	26925.91
550.387	27499.34
550.584	27206.48
550.782	27462.47
550.98	27253.58
551.178	28066.62
551.376	27702.09
551.573	28201.79
551.771	28158.78
551.969	28191.55
552.166	27847.49
552.364	28164.93
552.562	28052.29
552.759	28207.93
552.957	28144.45
553.154	28121.92
553.352	27964.23
553.55	28605.24
553.747	27929.41
553.945	28605.24
554.142	28920.63
554.339	29455.15
554.537	28912.44
554.734	29598.5
554.932	29266.73
555.129	29348.65
555.326	29479.72
555.524	29217.58
555.721	29729.57
555.918	30208.8
556.116	29731.62
556.313	30186.27
556.51	29745.96
556.707	30184.22
556.904	30186.27
557.102	30415.64
557.299	30184.22
557.496	30456.6
557.693	30446.36
557.89	31159.06
558.087	30673.69
558.284	30991.12
558.481	30079.78
558.678	30802.71
558.875	30919.44
559.072	30997.27
559.269	31025.94
559.466	31130.39
559.663	30298.91
559.86	31163.15
560.057	30939.92
560.254	31175.44
560.45	31666.95
560.647	31820.55
560.844	31202.06
561.041	31619.85
561.237	31456.01
561.434	32289.54
561.631	31795.98
561.828	32502.52
562.024	32021.25
562.221	32832.25
562.418	32267.01
562.614	32619.26
562.811	33008.37
563.007	33075.96
563.204	32504.57
563.4	33041.14
563.597	32758.52
563.793	33229.55
563.99	33454.83
564.186	33620.72
564.383	33049.33
564.579	33575.66
564.775	33129.2
564.972	33503.98
565.168	33788.65
565.365	33657.58
565.561	33078
565.757	33848.04
565.953	33190.64
566.15	33762.03
566.346	33381.1
566.542	33786.6
566.738	33503.98
566.934	33735.4
567.131	33780.46
567.327	34192.1
567.523	33223.41
567.719	33483.5
567.915	33452.78
568.111	33309.42
568.307	33401.58
568.503	34296.54
568.699	33911.53
568.895	34622.17
569.091	33889
569.287	34800.35
569.483	34599.64
569.679	34595.55
569.875	34233.06
570.07	34589.4
570.266	34392.8
570.462	35185.36
570.658	34198.24
570.854	35017.43
571.049	34849.5
571.245	35613.39
571.441	35152.6
571.636	35701.45
571.832	35472.08
572.028	35902.15
572.223	35855.05
572.419	36135.62
572.615	35838.67
572.81	36119.24
573.006	35672.78
573.201	36104.9
573.397	35971.78
573.592	36653.76
573.788	35795.66
573.983	36317.89
574.179	35853
574.374	36205.25
574.569	36254.4
574.765	36387.52
574.96	35402.45
575.156	36362.95
575.351	35687.12
575.546	36551.36
575.741	36358.85
575.937	36993.72
576.132	36053.7
576.327	36758.2
576.522	35904.2
576.718	36637.37
576.913	36952.76
577.108	36782.78
577.303	36315.84
577.498	37122.74
577.693	37098.17
577.888	36565.69
578.083	36221.64
578.278	37065.4
578.473	36453.06
578.668	36688.57
578.863	36709.05
579.058	37323.44
579.253	36866.75
579.448	37515.95
579.643	36983.48
579.838	38253.22
580.033	37806.76
580.227	37941.93
580.422	37362.35
580.617	37860.01
580.812	37528.24
581.006	37710.51
581.201	37796.52
581.396	38116.01
581.591	37745.32
581.785	37333.68
581.98	37309.11
582.175	38433.44
582.369	38101.67
582.564	38939.29
582.758	39023.26
582.953	38902.43
583.147	38285.99
583.342	38910.62
583.536	38419.11
583.731	38804.12
583.925	38584.99
584.12	39303.83
584.314	37991.08
584.509	39033.5
584.703	38380.19
584.897	39359.12
585.092	38613.66
585.286	39115.42
585.48	38718.11
585.674	38687.39
585.869	38877.85
586.063	38677.15
586.257	38437.54
586.451	38802.08
586.646	38378.15
586.84	38568.61
587.034	38877.85
587.228	39447.19
587.422	38912.67
587.616	39848.59
587.81	39869.07
588.004	39973.51
588.198	39217.81
588.392	39404.18
588.586	38384.29
588.78	39445.14
588.974	39447.19
589.168	39625.36
589.362	38906.52
589.556	39592.59
589.75	38820.51
589.944	39615.12
590.137	39443.09
590.331	39191.19
590.525	39072.41
590.719	40170.12
590.913	39697.04
591.106	39891.6
591.3	39678.61
591.494	40143.5
591.687	39828.11
591.881	40399.49
592.075	39361.17
592.268	40323.72
592.462	39703.18
592.655	39889.55
592.849	40252.04
593.043	40389.25
593.236	40696.45
593.43	40059.53
593.623	40516.23
593.817	41382.52
594.01	40714.88
594.203	41136.76
594.397	40385.16
594.59	41228.92
594.784	40360.58
594.977	41091.71
595.17	40948.35
595.364	41513.59
595.557	40901.24
595.75	41871.98
595.943	40999.55
596.137	41843.31
596.33	41198.2
596.523	41927.28
596.716	41699.95
596.909	41745.01
597.102	41257.59
597.296	41704.05
597.489	41204.34
597.682	41593.46
597.875	41441.91
598.068	41284.21
598.261	40817.28
598.454	41572.98
598.647	41597.55
598.84	42154.6
599.033	42068.59
599.226	42510.95
599.419	41847.41
599.611	41548.4
599.804	41181.82
599.997	41839.21
600.19	41476.72
600.383	41767.53
600.576	41808.49
600.768	41122.42
600.961	41323.13
601.154	41398.9
601.347	41622.13
601.539	42347.11
601.732	41816.69
601.925	42230.38
602.117	41615.99
602.31	42404.45
602.502	42041.96
602.695	43039.32
602.888	42633.83
603.08	42693.22
603.273	42891.87
603.465	42779.23
603.658	42611.3
603.85	43031.13
604.043	43203.16
604.235	42801.76
604.427	43301.46
604.62	43381.33
604.812	42830.43
605.004	42779.23
605.197	42760.8
605.389	42611.3
605.581	42078.83
605.774	42490.47
605.966	42003.05
606.158	42414.69
606.35	41900.65
606.543	42818.14
606.735	42762.85
606.927	42682.98
607.119	43094.62
607.311	43534.93
607.503	43694.67
607.695	43313.75
607.887	42605.15
608.079	43385.43
608.271	43137.63
608.463	43551.32
608.655	43508.31
608.847	43545.17
609.039	43092.57
609.231	43211.35
609.423	43037.28
609.615	43207.26
609.807	43205.21
609.999	43940.43
610.191	43590.23
610.382	43461.21
610.574	43053.66
610.766	43983.44
610.958	43524.69
611.15	43645.52
611.341	43006.56
611.533	43240.02
611.725	42709.6
611.916	43610.71
612.108	42670.69
612.3	43045.47
612.491	43420.25
612.683	43975.25
612.874	42912.35
613.066	44102.22
613.257	43383.38
613.449	43956.81
613.64	43463.25
613.832	43407.96
614.023	42957.4
614.215	43729.49
614.406	43989.58
614.598	43752.02
614.789	43367
614.98	44255.82
615.172	43250.26
615.363	43874.89
615.554	43598.42
615.746	44167.75
615.937	43498.07
616.128	43674.19
616.319	43242.07
616.511	43604.56
616.702	43141.72
616.893	43676.24
617.084	43930.19
617.275	43973.2
617.466	43637.33
617.658	44085.84
617.849	43426.39
618.04	44184.14
618.231	44210.76
618.422	44589.64
618.613	43600.47
618.804	43649.62
618.995	43471.44
619.186	43922
619.377	43530.84
619.568	44333.64
619.758	43973.2
619.949	44603.97
620.14	44053.07
620.331	45199.93
620.522	44485.19
620.713	45236.79
620.903	44900.93
621.094	45199.93
621.285	45142.59
621.476	45226.55
621.666	44866.11
621.857	45515.32
622.048	45318.71
622.238	45914.67
622.429	46101.04
622.62	46600.74
622.81	46826.02
623.001	46881.31
623.191	46512.68
623.382	47165.98
623.572	46955.04
623.763	47487.51
623.953	46615.08
624.144	48114.19
624.334	47329.82
624.525	48564.74
624.715	47151.64
624.905	48241.16
625.096	47409.69
625.286	47847.95
625.477	48364.04
625.667	48484.87
625.857	48458.25
626.047	49113.6
626.238	48200.2
626.428	49072.64
626.618	48083.47
626.808	49574.39
626.999	49216
627.189	49482.23
627.379	49263.1
627.569	49854.96
627.759	49732.09
627.949	50098.67
628.139	49654.26
628.329	50442.73
628.519	49486.33
628.709	50088.43
628.899	49994.23
629.089	51132.9
629.279	50065.9
629.469	50635.24
629.659	50297.32
629.849	50350.57
630.039	49648.12
630.229	50598.38
630.419	49625.59
630.609	49699.32
630.798	49846.77
630.988	50557.42
631.178	50530.79
631.368	50477.55
631.557	50555.37
631.747	50956.77
631.937	50143.73
632.127	50590.18
632.316	49805.81
632.506	50686.44
632.696	50383.34
632.885	50969.06
633.075	50147.82
633.264	49943.03
633.454	49783.28
633.643	50762.21
633.833	50475.5
634.022	51091.94
634.212	50479.59
634.401	51034.59
634.591	51007.97
634.78	51280.35
634.97	50360.81
635.159	51356.12
635.348	50477.55
635.538	50874.85
635.727	50414.06
635.916	50403.82
636.106	49760.76
636.295	49558.01
636.484	49297.92
636.674	49959.41
636.863	49220.09
637.052	50563.56
637.241	50113.01
637.43	51042.79
637.619	50117.1
637.809	50702.82
637.998	50526.7
638.187	50444.78
638.376	49988.08
638.565	50588.14
638.754	49445.37
638.943	50149.87
639.132	49713.65
639.321	50166.25
639.51	49048.06
639.699	49535.48
639.888	49281.53
640.077	49977.84
640.266	49762.8
640.455	49715.7
640.643	48794.12
640.832	50018.8
641.021	48927.23
641.21	49668.6
641.399	48742.92
641.587	49504.76
641.776	49598.97
641.965	49590.78
642.154	49811.96
642.342	49009.15
642.531	48361.99
642.72	48470.54
642.908	47667.73
643.097	48347.66
643.286	48577.03
643.474	49076.74
643.663	49187.33
643.851	49596.92
644.04	48312.84
644.228	48833.03
644.417	48232.97
644.605	48697.86
644.794	48429.58
644.982	49306.11
645.171	48429.58
645.359	48491.02
645.547	48093.71
645.736	48675.33
645.924	48316.94
646.112	48316.94
646.301	48357.9
646.489	48546.31
646.677	48310.8
646.866	48609.8
647.054	47780.37
647.242	48294.41
647.43	48067.09
647.618	48884.23
647.807	48527.88
647.995	49351.16
648.183	47690.26
648.371	48300.56
648.559	47903.25
648.747	48124.43
648.935	47782.42
649.123	47776.28
649.311	47344.15
649.499	48308.75
649.687	47866.39
649.875	48388.62
650.063	47688.21
650.251	47979.02
650.439	47714.84
650.627	48007.7
650.815	48314.89
651.003	47946.26
651.191	46848.55
651.378	47473.18
651.566	46561.83
651.754	47921.68
651.942	47458.84
652.13	47225.37
652.317	46864.93
652.505	47485.46
652.693	47338.01
652.88	48007.7
653.068	47055.39
653.256	48060.94
653.443	47843.86
653.631	48112.14
653.819	47327.77
654.006	48232.97
654.194	47430.17
654.381	48097.81
654.569	47495.7
654.756	47602.2
654.944	46948.9
655.131	47770.13
655.319	46914.08
655.506	47448.6
655.693	47088.16
655.881	47610.39
656.068	47065.63
656.256	47553.05
656.443	47768.08
656.63	47991.31
656.818	47399.45
657.005	48572.94
657.192	47561.24
657.379	48335.37
657.567	47682.07
657.754	48544.26
657.941	47438.36
658.128	47831.57
658.315	47176.22
658.502	47909.39
658.69	46465.58
658.877	47528.47
659.064	46907.94
659.251	47116.83
659.438	47843.86
659.625	48476.68
659.812	47997.46
659.999	48314.89
660.186	47884.82
660.373	48062.99
660.56	47436.31
660.747	47923.73
660.934	46869.03
661.121	47587.86
661.308	47460.89
661.494	46838.31
661.681	47372.83
661.868	47460.89
662.055	46598.69
662.242	47522.33
662.428	47059.49
662.615	47335.96
662.802	46991.9
662.989	47850
663.175	47200.8
663.362	47833.62
663.549	47141.4
663.735	47364.63
663.922	46850.59
664.109	47262.24
664.295	47176.22
664.482	47180.32
664.668	46449.19
664.855	48071.18
665.041	46701.09
665.228	47286.81
665.414	46266.92
665.601	47100.45
665.787	46103.08
665.974	46357.03
666.16	46299.69
666.347	47116.83
666.533	46643.75
666.719	47534.61
666.906	46518.82
667.092	46838.31
667.278	46432.81
667.465	46535.21
667.651	45832.75
667.837	47082.01
668.023	46578.21
668.21	47561.24
668.396	46379.56
668.582	47376.92
668.768	46539.3
668.954	46914.08
669.14	46062.13
669.327	45636.15
669.513	45414.97
669.699	46299.69
669.885	45652.53
670.071	47208.99
670.257	47174.17
670.443	46645.8
670.629	46352.94
670.815	46297.64
671.001	45980.21
671.187	46664.23
671.373	45808.18
671.559	45640.24
671.744	45441.59
671.93	45673.01
672.116	45787.7
672.302	46174.76
672.488	45300.28
672.674	46086.7
672.859	45423.16
673.045	46484.01
673.231	45916.72
673.417	46297.64
673.602	46043.69
673.788	46617.12
673.974	46582.31
674.159	46627.36
674.345	45943.34
674.531	46074.41
674.716	45699.63
674.902	45824.56
675.087	45095.48
675.273	46119.47
675.459	45259.32
675.644	46111.28
675.83	45380.15
676.015	46275.11
676.2	45402.68
676.386	45996.59
676.571	45623.86
676.757	46600.74
676.942	46055.98
677.128	47176.22
677.313	46428.71
677.498	47176.22
677.684	46832.16
677.869	47127.07
678.054	46348.84
678.24	46580.26
678.425	45521.46
678.61	45965.87
678.795	44966.46
678.98	45709.87
679.166	45050.43
679.351	45490.74
679.536	45003.33
679.721	46117.42
679.906	44669.51
680.091	45650.48
680.276	45496.89
680.461	45732.4
680.647	45195.83
680.832	46563.88
681.017	45658.68
681.202	45779.51
681.387	45388.34
681.572	45857.33
681.756	45587
681.941	45611.57
682.126	45201.98
682.311	45578.8
682.496	44888.64
682.681	45363.77
682.866	44923.45
683.051	45009.47
683.235	44126.79
683.42	44874.3
683.605	44651.07
683.79	45013.57
683.974	44655.17
684.159	45541.94
684.344	45363.77
684.529	45412.92
684.713	44472.9
684.898	44552.77
685.083	44245.58
685.267	44626.5
685.452	44587.59
685.636	44110.41
685.821	43559.51
686.005	44112.46
686.19	43743.82
686.375	44036.68
686.559	43829.84
686.744	44145.23
686.928	43940.43
687.112	44743.23
687.297	44210.76
687.481	44296.78
687.666	44425.8
687.85	45158.97
688.034	44950.08
688.219	45859.38
688.403	44718.66
688.587	45490.74
688.772	44622.4
688.956	44636.74
689.14	44620.36
689.324	44962.37
689.509	44833.34
689.693	45152.83
689.877	44618.31
690.061	45007.42
690.245	44517.96
690.43	44751.43
690.614	44309.06
690.798	44577.35
690.982	44177.99
691.166	45195.83
691.35	44118.6
691.534	45171.26
691.718	43749.97
691.902	44581.44
692.086	43629.14
692.27	44042.83
692.454	43297.37
692.638	43917.9
692.822	43565.65
693.006	43919.95
693.19	43792.98
693.373	44055.12
693.557	43461.21
693.741	43735.63
693.925	43151.96
694.109	43702.87
694.293	43135.58
694.476	43399.77
694.66	42986.08
694.844	43285.08
695.027	42611.3
695.211	43352.66
695.395	42814.05
695.578	43719.25
695.762	42556
695.946	42832.48
696.129	42259.05
696.313	42881.63
696.497	42545.76
696.68	42742.37
696.864	42156.65
697.047	42332.77
697.231	41779.82
697.414	41947.76
697.598	41812.59
697.781	42336.87
697.965	41593.46
698.148	41945.71
698.331	41767.53
698.515	42093.16
698.698	41392.76
698.881	42850.91
699.065	41874.03
699.248	42381.93
699.431	41300.6
699.615	42328.68
699.798	41489.01
699.981	42058.35
700.165	41620.08
700.348	41990.76
700.531	40794.75
700.714	41532.02
700.897	40874.62
701.08	41333.37
701.264	40682.11
701.447	41015.93
701.63	40835.71
701.813	41855.6
701.996	40753.79
702.179	41296.5
702.362	40817.28
702.545	41685.62
702.728	41589.36
702.911	42361.45
703.094	41288.31
703.277	42119.79
703.46	40862.33
703.643	40979.07
703.826	39996.04
704.009	41077.37
704.191	40133.26
704.374	40362.63
704.557	39647.89
704.74	40548.99
704.923	40039.05
705.106	39973.51
705.288	39668.37
705.471	39957.13
705.654	39864.97
705.837	40030.86
706.019	39998.09
706.202	39795.34
706.385	39651.98
706.567	40495.75
706.75	40180.36
706.932	40235.65
707.115	39123.61
707.298	39438.99
707.48	38488.74
707.663	38273.7
707.845	37706.41
708.028	38410.91
708.21	37800.62
708.393	37903.02
708.575	37685.93
708.758	37604.01
708.94	37933.74
709.123	38029.99
709.305	37941.93
709.487	38372
709.67	38116.01
709.852	38144.68
710.034	38134.44
710.217	38836.89
710.399	38646.43
710.581	38232.74
710.764	38154.92
710.946	37903.02
711.128	37194.42
711.31	38075.05
711.492	37518
711.675	37376.69
711.857	37175.99
712.039	37872.3
712.221	37278.39
712.403	37749.42
712.585	37149.37
712.767	37106.36
712.949	36704.96
713.131	36975.29
713.314	36418.24
713.496	36821.69
713.678	36473.54
713.86	36936.38
714.041	36930.23
714.223	37391.03
714.405	36655.8
714.587	37042.87
714.769	36485.82
714.951	36909.75
715.133	36199.11
715.315	36319.94
715.497	36086.47
715.678	36491.97
715.86	36274.88
716.042	36485.82
716.224	36000.45
716.406	36266.69
716.587	36377.28
716.769	36055.75
716.951	35674.83
717.132	35414.74
717.314	34980.57
717.496	35353.3
717.677	35588.81
717.859	35719.88
718.041	35508.94
718.222	36074.18
718.404	35125.97
718.585	36104.9
718.767	34724.57
718.948	34835.16
719.13	34779.87
719.311	35023.57
719.493	34271.97
719.674	34200.29
719.856	34294.5
720.037	34212.58
720.219	33952.49
720.4	34646.75
720.581	34108.13
720.763	34499.29
720.944	33991.4
721.125	34423.52
721.307	34263.78
721.488	34063.08
721.669	33653.48
721.85	34243.3
722.032	34220.77
722.213	33845.99
722.394	33565.42
722.575	33590
722.756	33356.53
722.938	33716.97
723.119	32537.34
723.3	32246.53
723.481	32097.03
723.662	32965.37
723.843	31890.18
724.024	32412.41
724.205	32137.99
724.386	32795.38
724.567	32178.95
724.748	33028.85
724.929	32189.19
725.11	32873.21
725.291	32291.58
725.472	32975.61
725.653	32733.94
725.834	33002.23
726.015	31970.05
726.196	32457.47
726.377	31996.68
726.557	31413
726.738	30964.5
726.919	31380.24
727.1	30683.93
727.281	30907.16
727.461	30780.18
727.642	30647.06
727.823	30307.1
728.004	30483.23
728.184	30198.56
728.365	30767.89
728.546	30124.83
728.726	30452.51
728.907	30120.74
729.087	30530.33
729.268	30358.3
729.449	30386.97
729.629	30192.42
729.81	30432.03
729.99	30233.37
730.171	30298.91
730.351	30284.57
730.532	29948.71
730.712	29752.1
730.893	29692.71
731.073	29631.27
731.253	29350.7
731.434	29004.59
731.614	29225.77
731.795	28445.5
731.975	29289.26
732.155	28687.16
732.336	28867.38
732.516	28746.55
732.696	28668.73
732.876	28621.62
733.057	28975.92
733.237	28486.46
733.417	28791.6
733.597	28484.41
733.778	28252.99
733.958	28261.18
734.138	28500.79
734.318	28027.71
734.498	28212.03
734.678	27474.76
734.858	27769.67
735.038	27149.13
735.218	27530.06
735.398	26919.76
735.579	27202.38
735.759	26882.9
735.939	26925.91
736.119	26624.85
736.298	27112.27
736.478	26747.73
736.658	26327.9
736.838	26524.5
737.018	26278.75
737.198	26209.12
737.378	26293.08
737.558	25887.59
737.738	26059.61
737.917	25797.47
738.097	26104.67
738.277	25629.54
738.457	25774.95
738.637	25369.45
738.816	25166.7
738.996	25146.22
739.176	25776.99
739.355	25185.13
739.535	25539.43
739.715	24978.29
739.894	25336.68
740.074	25242.48
740.254	24968.05
740.433	25000.81
740.613	24984.43
740.792	25015.15
740.972	25041.77
741.151	24390.52
741.331	25037.68
741.51	24623.99
741.69	24552.31
741.869	24204.15
742.049	24488.82
742.228	24060.8
742.408	24089.47
742.587	23468.93
742.766	23780.23
742.946	23503.75
743.125	23657.35
743.305	23415.69
743.484	23102.35
743.663	23176.07
743.842	23231.37
744.022	22723.47
744.201	23333.77
744.38	23110.54
744.56	22729.62
744.739	22922.13
744.918	22922.13
745.097	23208.84
745.276	22567.83
745.455	22498.2
745.635	22457.24
745.814	22174.62
745.993	22557.59
746.172	22270.87
746.351	22549.4
746.53	22315.93
746.709	22317.98
746.888	22455.19
747.067	22670.23
747.246	22311.83
747.425	22264.73
747.604	21930.91
747.783	22234.01
747.962	21832.61
748.141	22246.3
748.32	21955.49
748.499	22217.63
748.677	21816.22
748.856	22490.01
749.035	22426.52
749.214	22383.51
749.393	22293.4
749.572	22705.04
749.75	22166.43
749.929	22533.01
750.108	22186.91
750.287	22803.34
750.465	22041.5
750.644	22481.81
750.823	22399.89
751.001	22641.55
751.18	22526.87
751.359	22547.35
751.537	22248.34
751.716	22533.01
751.894	22193.05
752.073	22264.73
752.251	21758.88
752.43	22348.7
752.609	21638.05
752.787	22203.29
752.966	21556.13
753.144	22299.54
753.322	21986.2
753.501	21875.61
753.679	21664.67
753.858	22307.74
754.036	21918.62
754.215	22057.88
754.393	21765.02
754.571	22246.3
754.75	21484.45
754.928	22086.56
755.106	21656.48
755.284	22104.99
755.463	21537.7
755.641	21846.94
755.819	21945.25
755.997	21586.85
756.176	21414.82
756.354	21973.92
756.532	21377.96
756.71	21703.59
756.888	21261.22
757.066	21566.37
757.245	20992.94
757.423	21402.53
757.601	21246.89
757.779	21455.78
757.957	21382.05
758.135	21246.89
758.313	20841.39
758.491	21328.81
758.669	20652.98
758.847	20814.77
759.025	20368.31
759.203	20642.74
759.381	20186.04
759.559	20704.18
759.737	20515.76
759.915	20444.08
760.092	20235.19
760.27	20579.25
760.448	20095.93
760.626	20159.42
760.804	19895.23
760.981	19817.41
761.159	19489.73
761.337	19913.66
761.515	19708.86
761.692	19731.39
761.87	19911.61
762.048	19762.11
762.226	19620.8
762.403	19958.72
762.581	19250.12
762.759	19827.65
762.936	19399.62
763.114	18985.93
763.291	18539.47
763.469	18654.16
763.647	18099.16
763.824	18338.77
764.002	17972.19
764.179	18250.71
764.357	18037.72
764.534	17966.04
764.712	17572.83
764.889	17460.19
765.066	17542.11
765.244	17247.21
765.421	16735.21
765.599	16782.32
765.776	16866.28
765.953	16720.88
766.131	16690.16
766.308	16434.16
766.485	16380.91
766.663	16327.67
766.84	16165.88
767.017	16370.67
767.194	16172.02
767.372	16096.25
767.549	15885.31
767.726	15830.01
767.903	15438.85
768.081	15254.53
768.258	15008.78
768.435	15252.48
768.612	15062.02
768.789	14828.55
768.966	14803.98
769.143	14722.06
769.32	14484.5
769.497	14414.86
769.674	14199.83
769.851	14226.45
770.028	14070.81
770.205	14023.7
770.382	13698.08
770.559	14019.61
770.736	13642.78
770.913	13505.57
771.09	13501.47
771.267	13462.56
771.444	13120.55
771.621	13321.25
771.798	12895.27
771.975	12786.73
772.151	12590.12
772.328	12559.4
772.505	12256.31
772.682	12280.88
772.859	11992.12
773.035	11953.21
773.212	11709.5
773.389	11795.51
773.565	11129.92
773.742	11543.61
773.919	11244.61
774.096	11076.68
774.272	11056.2
774.449	10955.85
774.625	10855.49
774.802	10726.47
774.979	10556.49
775.155	10646.6
775.332	10267.73
775.508	10390.61
775.685	10208.34
775.861	10191.95
776.038	10118.23
776.214	10241.1
776.391	9874.52
776.567	10040.4
776.744	9897.05
776.92	9722.97
777.096	9462.88
777.273	9383.01
777.449	9239.65
777.626	9147.49
777.802	9198.69
777.978	8963.17
778.155	8768.61
778.331	8909.92
778.507	8858.73
778.683	8746.09
778.86	8623.21
779.036	8670.31
779.212	8354.92
779.388	8385.64
779.565	8225.9
779.741	7988.34
779.917	8045.68
780.093	8082.54
780.269	7881.84
780.445	7844.98
780.621	7771.25
780.797	7554.17
780.974	7578.74
781.15	7861.36
781.326	7457.91
781.502	7605.37
781.678	7242.88
781.854	7517.31
782.03	7263.36
782.206	7335.04
782.382	7017.6
782.558	7199.87
782.733	7011.46
782.909	7093.38
783.085	7005.31
783.261	6923.39
783.437	6689.93
783.613	6833.28
783.789	6960.26
783.965	6669.45
784.14	6591.62
784.316	6714.5
784.492	6485.13
784.668	6513.8
784.843	6253.71
785.019	6575.24
785.195	6343.82
785.371	6263.95
785.546	6231.18
785.722	6073.49
785.898	6096.02
786.073	6227.09
786.249	5794.96
786.424	5768.34
786.6	5723.28
786.776	5694.61
786.951	5571.74
787.127	5489.82
787.302	5526.68
787.478	5516.44
787.653	5295.26
787.829	5409.95
788.004	5270.68
788.18	5190.81
788.355	5190.81
788.531	5244.06
788.706	4992.16
788.881	5166.24
789.057	4746.4
789.232	5016.74
789.408	4867.23
789.583	4902.05
789.758	4752.55
789.934	4844.71
790.109	4633.77
790.284	4711.59
790.459	4574.37
790.635	4789.41
790.81	4525.22
790.985	4541.61
791.16	4541.61
791.336	4353.19
791.511	4369.58
791.686	4297.9
791.861	4293.8
792.036	4224.17
792.211	4134.06
792.387	4213.93
792.562	4203.69
792.737	4187.31
792.912	3968.18
793.087	3902.64
793.262	3941.55
793.437	3804.34
793.612	3861.68
793.787	3914.93
793.962	3910.83
794.137	3921.07
794.312	3763.38
794.487	3884.21
794.662	3794.1
794.837	3779.76
795.011	3720.37
795.186	3695.8
795.361	3548.34
795.536	3712.18
795.711	3642.55
795.886	3515.57
796.06	3558.58
796.235	3574.97
796.41	3499.19
796.585	3417.27
796.76	3376.31
796.934	3265.72
797.109	3507.38
797.284	3359.93
797.458	3179.71
797.633	3300.54
797.808	3187.9
797.982	3181.76
798.157	3228.86
798.332	3132.6
798.506	3105.98
798.681	3144.89
798.855	2950.34
799.03	3007.68
799.204	2907.33
799.379	3069.12
799.553	2968.77
799.728	3044.54
799.902	2913.47
800.077	2931.9
800.251	3007.68
800.426	3060.93
800.6	2856.13
800.775	2933.95
800.949	2823.36
801.123	2827.46
801.298	2749.63
801.472	2815.17
801.647	2727.11
801.821	2620.61
801.995	2725.06
802.169	2729.15
802.344	2671.81
802.518	2761.92
802.692	2729.15
802.867	2766.02
803.041	2774.21
803.215	2630.85
803.389	2684.1
803.563	2542.79
803.737	2712.77
803.912	2503.88
804.086	2583.75
804.26	2553.03
804.434	2532.55
804.608	2546.89
804.782	2528.45
804.956	2421.96
805.13	2475.21
805.304	2608.32
805.478	2622.66
805.652	2577.6
805.826	2458.82
806	2516.17
806.174	2460.87
806.348	2467.01
806.522	2358.47
806.696	2354.38
806.87	2397.38
807.044	2239.69
807.218	2362.57
807.392	2493.64
807.566	2452.68
807.739	2401.48
807.913	2403.53
808.087	2346.18
808.261	2360.52
808.435	2426.06
808.608	2364.62
808.782	2358.47
808.956	2344.14
809.13	2426.06
809.303	2286.79
809.477	2323.66
809.651	2401.48
809.824	2321.61
809.998	2241.74
810.172	2335.94
810.345	2354.38
810.519	2278.6
810.692	2249.93
810.866	2290.89
811.04	2303.18
811.213	2229.45
811.387	2311.37
811.56	2317.51
811.734	2319.56
811.907	2297.03
812.081	2315.46
812.254	2274.51
812.428	2393.29
812.601	2274.51
812.774	2354.38
812.948	2370.76
813.121	2401.48
813.295	2221.26
813.468	2286.79
813.641	2286.79
813.815	2188.49
813.988	2378.95
814.161	2319.56
814.335	2319.56
814.508	2303.18
814.681	2288.84
814.854	2331.85
815.028	2260.17
815.201	2180.3
815.374	2264.27
815.547	2149.58
815.72	2225.35
815.894	2165.96
816.067	2161.87
816.24	2139.34
816.413	2229.45
816.586	2299.08
816.759	2116.81
816.932	2249.93
817.105	2235.59
817.278	2034.89
817.452	2174.16
817.625	2192.59
817.798	2372.81
817.971	2235.59
818.144	2165.96
818.317	2125
818.49	2229.45
818.662	2231.5
818.835	2292.94
819.008	2237.64
819.181	2217.16
819.354	2206.92
819.527	2002.13
819.7	2125
819.873	2143.44
820.046	2161.87
820.218	2231.5
820.391	2223.31
820.564	2217.16
820.737	2133.2
820.909	2196.68
821.082	2182.35
821.255	2354.38
821.428	2219.21
821.6	2122.96
821.773	2170.06
821.946	2188.49
822.118	2073.8
822.291	2141.39
822.464	2219.21
822.636	2313.42
822.809	2151.63
822.982	2256.07
823.154	2249.93
823.327	2122.96
823.499	2165.96
823.672	2073.8
823.844	2151.63
824.017	2061.52
824.189	2125
824.362	2168.01
824.534	1995.98
824.707	2098.38
824.879	2112.72
825.052	2104.52
825.224	2190.54
825.396	2149.58
825.569	2192.59
825.741	2100.43
825.914	2075.85
826.086	2211.02
826.258	2067.66
826.431	2223.31
826.603	2208.97
826.775	2155.72
826.947	2122.96
827.12	2092.24
827.292	2131.15
827.464	1938.64
827.636	2053.32
827.809	2168.01
827.981	1961.17
828.153	1936.59
828.325	1993.93
828.497	2008.27
828.669	2131.15
828.842	2106.57
829.014	2008.27
829.186	1963.21
829.358	2034.89
829.53	2041.04
829.702	2045.13
829.874	2100.43
830.046	2104.52
830.218	2045.13
830.39	2000.08
830.562	2073.8
830.734	2043.09
830.906	2024.65
831.078	1887.44
831.25	1893.58
831.422	1967.31
831.594	1950.93
831.766	1977.55
831.937	1936.59
832.109	2114.76
832.281	2004.17
832.453	1967.31
832.625	2008.27
832.797	1905.87
832.968	1918.16
833.14	1862.86
833.312	2000.08
833.484	1881.3
833.655	1918.16
833.827	1840.34
833.999	1885.39
834.171	1930.45
834.342	1940.69
834.514	1842.38
834.686	1830.1
834.857	1973.45
835.029	1787.09
835.2	1852.62
835.372	1762.51
835.544	1803.47
835.715	1838.29
835.887	1787.09
836.058	1897.68
836.23	1795.28
836.401	1901.78
836.573	1852.62
836.744	1774.8
836.916	1766.61
837.087	1832.14
837.259	1758.42
837.43	1848.53
837.602	1782.99
837.773	1729.75
837.945	1696.98
838.116	1828.05
838.287	1748.18
838.459	1752.27
838.63	1787.09
838.801	1729.75
838.973	1764.56
839.144	1778.9
839.315	1828.05
839.487	1672.4
839.658	1787.09
839.829	1715.41
840	1737.94
840.172	1787.09
840.343	1696.98
840.514	1733.84
840.685	1774.8
840.856	1768.66
841.027	1778.9
841.199	1699.03
841.37	1660.11
841.541	1797.33
841.712	1762.51
841.883	1656.02
842.054	1658.07
842.225	1711.31
842.396	1676.5
842.567	1707.22
842.738	1680.59
842.909	1627.35
843.08	1688.79
843.251	1606.87
843.422	1647.83
843.593	1512.66
843.764	1590.48
843.935	1592.53
844.106	1594.58
844.277	1647.83
844.448	1590.48
844.619	1539.28
844.79	1541.33
844.96	1531.09
845.131	1549.52
845.302	1574.1
845.473	1567.96
845.644	1586.39
845.814	1522.9
845.985	1496.28
846.156	1584.34
846.327	1418.45
846.497	1443.03
846.668	1434.84
846.839	1541.33
847.01	1533.14
847.18	1483.99
847.351	1481.94
847.522	1369.3
847.692	1402.07
847.863	1412.31
848.033	1402.07
848.204	1348.82
848.375	1336.54
848.545	1369.3
848.716	1371.35
848.886	1426.65
849.057	1291.48
849.227	1354.97
849.398	1357.02
849.568	1365.21
849.739	1303.77
849.909	1385.69
850.08	1281.24
850.25	1404.12
850.421	1221.85
850.591	1170.65
850.761	1299.67
850.932	1252.57
851.102	1281.24
851.272	1377.5
851.443	1260.76
851.613	1295.58
851.783	1271
851.954	1254.62
852.124	1197.27
852.294	1209.56
852.465	1117.4
852.635	1193.18
852.805	1207.51
852.975	1144.03
853.145	1184.99
853.316	1148.12
853.486	1254.62
853.656	1166.55
853.826	1271
853.996	1133.79
854.166	1105.12
854.337	1223.9
854.507	1035.48
854.677	1101.02
854.847	1174.75
855.017	1139.93
855.187	1029.34
855.357	1096.92
855.527	1123.55
855.697	1156.31
855.867	1025.24
856.037	1107.16
856.207	1098.97
856.377	1139.93
856.547	1055.96
856.717	998.62
856.887	1027.29
857.057	1152.22
857.227	1012.96
857.397	939.23
857.566	955.61
857.736	1027.29
857.906	953.57
858.076	943.33
858.246	1010.91
858.416	1041.63
858.585	902.37
858.755	879.84
858.925	976.09
859.095	922.85
859.264	890.08
859.434	969.95
859.604	904.41
859.774	945.37
859.943	926.94
860.113	1000.67
860.283	955.61
860.452	951.52
860.622	849.12
860.791	902.37
860.961	937.18
861.131	836.83
861.3	922.85
861.47	1037.53
861.639	943.33
861.809	896.22
861.978	885.98
862.148	912.61
862.318	896.22
862.487	812.26
862.657	900.32
862.826	871.65
862.995	928.99
863.165	836.83
863.334	867.55
863.504	834.78
863.673	838.88
863.843	873.69
864.012	918.75
864.181	869.6
864.351	828.64
864.52	828.64
864.689	853.22
864.859	863.46
865.028	804.06
865.197	816.35
865.366	857.31
865.536	806.11
865.705	761.06
865.874	820.45
866.043	861.41
866.213	820.45
866.382	738.53
866.551	812.26
866.72	826.59
866.889	748.77
867.059	742.62
867.228	748.77
867.397	765.15
867.566	789.73
867.735	756.96
867.904	736.48
868.073	771.3
868.242	820.45
868.411	787.68
868.58	687.33
868.749	679.14
868.918	697.57
869.087	658.66
869.256	664.8
869.425	763.1
869.594	726.24
869.763	759.01
869.932	716
870.101	675.04
870.27	574.69
870.439	732.39
870.608	658.66
870.777	656.61
870.945	656.61
871.114	617.7
871.283	820.45
871.452	693.47
871.621	703.71
871.789	648.42
871.958	562.4
872.127	574.69
872.296	593.12
872.464	668.9
872.633	636.13
872.802	574.69
872.971	656.61
873.139	640.23
873.308	619.75
873.477	632.03
873.645	568.55
873.814	599.27
873.983	656.61
874.151	693.47
874.32	584.93
874.488	656.61
874.657	650.47
874.826	632.03
874.994	625.89
875.163	543.97
875.331	566.5
875.5	513.25
875.668	513.25
875.837	658.66
876.005	609.51
876.174	646.37
876.342	615.65
876.51	546.02
876.679	632.03
876.847	570.6
877.016	625.89
877.184	541.92
877.352	601.32
877.521	629.99
877.689	574.69
877.857	566.5
878.026	660.71
878.194	541.92
878.362	652.51
878.531	619.75
878.699	529.64
878.867	576.74
879.036	619.75
879.204	586.98
879.372	584.93
879.54	632.03
879.708	453.86
879.877	582.88
880.045	613.6
880.213	525.54
880.381	576.74
880.549	625.89
880.717	509.16
880.885	611.55
881.054	480.48
881.222	552.16
881.39	562.4
881.558	529.64
881.726	566.5
881.894	543.97
882.062	541.92
882.23	521.44
882.398	574.69
882.566	509.16
882.734	507.11
882.902	500.96
883.07	488.68
883.238	517.35
883.406	566.5
883.574	496.87
883.741	525.54
883.909	468.2
884.077	525.54
884.245	572.64
884.413	500.96
884.581	525.54
884.749	568.55
884.916	533.73
885.084	490.72
885.252	582.88
885.42	582.88
885.587	511.2
885.755	554.21
885.923	562.4
886.091	513.25
886.258	496.87
886.426	496.87
886.594	517.35
886.761	529.64
886.929	472.29
887.097	494.82
887.264	572.64
887.432	503.01
887.6	552.16
887.767	541.92
887.935	513.25
888.102	533.73
888.27	509.16
888.438	523.49
888.605	543.97
888.773	519.4
888.94	511.2
889.108	548.07
889.275	546.02
889.443	531.68
889.61	443.62
889.778	472.29
889.945	451.81
890.112	462.05
890.28	435.43
890.447	519.4
890.615	429.29
890.782	586.98
890.949	437.48
891.117	427.24
891.284	462.05
891.452	484.58
891.619	390.37
891.786	511.2
891.953	562.4
892.121	589.03
892.288	431.33
892.455	455.91
892.623	455.91
892.79	451.81
892.957	517.35
893.124	603.36
893.291	435.43
893.459	505.06
893.626	548.07
893.793	445.67
893.96	443.62
894.127	550.12
894.294	533.73
894.461	543.97
894.629	494.82
894.796	470.25
894.963	519.4
895.13	462.05
895.297	503.01
895.464	447.72
895.631	480.48
895.798	517.35
895.965	543.97
896.132	541.92
896.299	427.24
896.466	451.81
896.633	511.2
896.8	421.09
896.967	562.4
897.134	443.62
897.301	478.44
897.467	488.68
897.634	439.53
897.801	472.29
897.968	443.62
898.135	546.02
898.302	505.06
898.469	406.76
898.635	486.63
898.802	462.05
898.969	478.44
899.136	500.96
899.303	390.37
