Data from light_USB4E013581_00008.txt Node
Date: Wed May 08 15:04:40 EDT 2019
User: dh1006
Spectrometer: USB4E01358
Autoset integration time: false
Trigger mode: 4
Integration Time (sec): 2.925000E-2
Scans to average: 1
Electric dark correction enabled: true
Nonlinearity correction enabled: false
Boxcar width: 0
Stray light correction enabled: false
XAxis mode: Wavelengths
Stop averaging: false
Number of Pixels in Spectrum: 3648
>>>>>Begin Spectral Data<<<<<
176.727	-50.41
176.966	-50.41
177.205	-50.41
177.444	-34.03
177.683	-62.7
177.922	68.37
178.161	2.84
178.4	72.47
178.638	8.98
178.877	-1.26
179.116	17.17
179.355	49.94
179.593	29.46
179.832	84.75
180.071	99.09
180.309	25.36
180.548	58.13
180.786	45.84
181.025	80.66
181.263	80.66
181.502	97.04
181.74	64.27
181.979	105.23
182.217	82.71
182.456	129.81
182.694	51.99
182.932	88.85
183.17	105.23
183.409	162.58
183.647	170.77
183.885	47.89
184.123	97.04
184.361	133.91
184.6	105.23
184.838	146.19
185.076	121.62
185.314	154.39
185.552	99.09
185.79	133.91
186.028	92.95
186.266	117.52
186.503	121.62
186.741	144.15
186.979	215.82
187.217	41.75
187.455	135.95
187.693	97.04
187.93	80.66
188.168	117.52
188.406	35.6
188.643	23.32
188.881	88.85
189.119	129.81
189.356	146.19
189.594	90.9
189.831	99.09
190.069	121.62
190.306	164.63
190.543	131.86
190.781	64.27
191.018	125.71
191.256	146.19
191.493	54.03
191.73	23.32
191.967	138
192.205	162.58
192.442	109.33
192.679	60.18
192.916	142.1
193.153	121.62
193.39	113.43
193.628	154.39
193.865	88.85
194.102	121.62
194.339	125.71
194.576	105.23
194.813	168.72
195.049	181.01
195.286	113.43
195.523	86.8
195.76	117.52
195.997	146.19
196.234	107.28
196.47	119.57
196.707	31.51
196.944	142.1
197.18	101.14
197.417	76.56
197.654	64.27
197.89	111.38
198.127	162.58
198.363	129.81
198.6	80.66
198.836	170.77
199.073	135.95
199.309	109.33
199.546	115.47
199.782	162.58
200.018	164.63
200.255	125.71
200.491	170.77
200.727	88.85
200.963	117.52
201.199	97.04
201.436	49.94
201.672	82.71
201.908	154.39
202.144	97.04
202.38	121.62
202.616	138
202.852	166.67
203.088	90.9
203.324	125.71
203.56	74.51
203.796	123.67
204.032	41.75
204.268	123.67
204.503	138
204.739	189.2
204.975	47.89
205.211	35.6
205.446	82.71
205.682	131.86
205.918	49.94
206.153	138
206.389	138
206.625	64.27
206.86	31.51
207.096	215.82
207.331	92.95
207.567	129.81
207.802	82.71
208.037	90.9
208.273	121.62
208.508	121.62
208.744	105.23
208.979	88.85
209.214	158.48
209.449	129.81
209.685	105.23
209.92	162.58
210.155	6.93
210.39	117.52
210.625	113.43
210.86	168.72
211.095	113.43
211.33	142.1
211.565	133.91
211.8	109.33
212.035	154.39
212.27	109.33
212.505	72.47
212.74	131.86
212.975	140.05
213.21	115.47
213.444	105.23
213.679	74.51
213.914	97.04
214.149	97.04
214.383	138
214.618	142.1
214.853	99.09
215.087	211.73
215.322	58.13
215.556	45.84
215.791	66.32
216.025	183.06
216.26	187.15
216.494	133.91
216.729	133.91
216.963	129.81
217.197	119.57
217.432	90.9
217.666	117.52
217.9	99.09
218.135	109.33
218.369	185.1
218.603	51.99
218.837	127.76
219.071	142.1
219.306	146.19
219.54	66.32
219.774	105.23
220.008	115.47
220.242	97.04
220.476	66.32
220.71	125.71
220.944	43.8
221.178	109.33
221.411	84.75
221.645	109.33
221.879	90.9
222.113	56.08
222.347	88.85
222.58	80.66
222.814	88.85
223.048	80.66
223.281	113.43
223.515	66.32
223.749	97.04
223.982	144.15
224.216	82.71
224.449	99.09
224.683	113.43
224.916	97.04
225.15	97.04
225.383	195.34
225.617	150.29
225.85	15.12
226.083	119.57
226.317	117.52
226.55	101.14
226.783	129.81
227.016	117.52
227.25	97.04
227.483	119.57
227.716	144.15
227.949	121.62
228.182	117.52
228.415	197.39
228.648	166.67
228.881	170.77
229.114	103.19
229.347	150.29
229.58	54.03
229.813	105.23
230.046	195.34
230.279	78.61
230.512	88.85
230.745	217.87
230.977	170.77
231.21	113.43
231.443	117.52
231.675	111.38
231.908	80.66
232.141	162.58
232.373	84.75
232.606	41.75
232.839	117.52
233.071	146.19
233.304	99.09
233.536	140.05
233.769	181.01
234.001	107.28
234.233	117.52
234.466	150.29
234.698	125.71
234.93	140.05
235.163	178.96
235.395	84.75
235.627	121.62
235.86	174.87
236.092	129.81
236.324	135.95
236.556	80.66
236.788	185.1
237.02	92.95
237.252	33.56
237.484	109.33
237.716	105.23
237.948	164.63
238.18	78.61
238.412	152.34
238.644	197.39
238.876	125.71
239.108	113.43
239.34	129.81
239.571	58.13
239.803	92.95
240.035	68.37
240.267	101.14
240.498	80.66
240.73	88.85
240.962	107.28
241.193	162.58
241.425	140.05
241.656	68.37
241.888	146.19
242.119	162.58
242.351	152.34
242.582	146.19
242.814	88.85
243.045	60.18
243.277	113.43
243.508	105.23
243.739	154.39
243.971	88.85
244.202	92.95
244.433	113.43
244.664	146.19
244.896	109.33
245.127	150.29
245.358	172.82
245.589	170.77
245.82	47.89
246.051	49.94
246.282	109.33
246.513	58.13
246.744	88.85
246.975	146.19
247.206	113.43
247.437	178.96
247.668	64.27
247.899	88.85
248.129	119.57
248.36	74.51
248.591	105.23
248.822	164.63
249.052	131.86
249.283	170.77
249.514	174.87
249.744	140.05
249.975	154.39
250.206	88.85
250.436	138
250.667	140.05
250.897	60.18
251.128	142.1
251.358	170.77
251.589	107.28
251.819	138
252.049	154.39
252.28	68.37
252.51	64.27
252.74	162.58
252.971	138
253.201	84.75
253.431	113.43
253.661	109.33
253.891	113.43
254.121	105.23
254.352	172.82
254.582	181.01
254.812	72.47
255.042	121.62
255.272	148.24
255.502	105.23
255.732	131.86
255.962	158.48
256.192	88.85
256.421	174.87
256.651	113.43
256.881	156.43
257.111	99.09
257.341	58.13
257.57	154.39
257.8	156.43
258.03	97.04
258.259	144.15
258.489	162.58
258.719	39.7
258.948	129.81
259.178	127.76
259.407	58.13
259.637	121.62
259.866	70.42
260.096	103.19
260.325	148.24
260.555	195.34
260.784	84.75
261.013	60.18
261.243	140.05
261.472	121.62
261.701	103.19
261.931	131.86
262.16	92.95
262.389	154.39
262.618	115.47
262.847	119.57
263.076	129.81
263.305	105.23
263.535	146.19
263.764	135.95
263.993	154.39
264.222	129.81
264.451	115.47
264.679	109.33
264.908	66.32
265.137	105.23
265.366	154.39
265.595	142.1
265.824	138
266.053	74.51
266.281	97.04
266.51	72.47
266.739	140.05
266.967	146.19
267.196	201.49
267.425	97.04
267.653	113.43
267.882	64.27
268.11	88.85
268.339	64.27
268.567	154.39
268.796	158.48
269.024	183.06
269.253	135.95
269.481	115.47
269.709	140.05
269.938	113.43
270.166	64.27
270.394	109.33
270.623	156.43
270.851	113.43
271.079	131.86
271.307	105.23
271.535	158.48
271.764	90.9
271.992	138
272.22	144.15
272.448	205.58
272.676	72.47
272.904	101.14
273.132	84.75
273.36	138
273.588	80.66
273.816	197.39
274.043	99.09
274.271	72.47
274.499	152.34
274.727	195.34
274.955	131.86
275.182	129.81
275.41	193.3
275.638	172.82
275.866	168.72
276.093	107.28
276.321	80.66
276.548	113.43
276.776	156.43
277.003	86.8
277.231	107.28
277.458	113.43
277.686	146.19
277.913	47.89
278.141	129.81
278.368	148.24
278.595	82.71
278.823	146.19
279.05	191.25
279.277	146.19
279.505	56.08
279.732	140.05
279.959	121.62
280.186	43.8
280.413	113.43
280.641	138
280.868	105.23
281.095	178.96
281.322	154.39
281.549	138
281.776	117.52
282.003	148.24
282.23	166.67
282.457	113.43
282.683	27.41
282.91	80.66
283.137	92.95
283.364	183.06
283.591	181.01
283.818	125.71
284.044	119.57
284.271	162.58
284.498	156.43
284.724	123.67
284.951	154.39
285.178	162.58
285.404	47.89
285.631	92.95
285.857	211.73
286.084	189.2
286.31	37.65
286.537	158.48
286.763	101.14
286.99	160.53
287.216	170.77
287.442	76.56
287.669	113.43
287.895	150.29
288.121	166.67
288.347	64.27
288.574	103.19
288.8	131.86
289.026	123.67
289.252	97.04
289.478	113.43
289.704	131.86
289.931	82.71
290.157	117.52
290.383	135.95
290.609	131.86
290.835	146.19
291.06	105.23
291.286	80.66
291.512	146.19
291.738	125.71
291.964	181.01
292.19	97.04
292.416	101.14
292.641	146.19
292.867	90.9
293.093	109.33
293.319	88.85
293.544	115.47
293.77	39.7
293.995	174.87
294.221	142.1
294.447	111.38
294.672	166.67
294.898	49.94
295.123	127.76
295.349	97.04
295.574	201.49
295.799	146.19
296.025	107.28
296.25	158.48
296.476	121.62
296.701	146.19
296.926	64.27
297.151	140.05
297.377	70.42
297.602	121.62
297.827	156.43
298.052	123.67
298.277	170.77
298.502	140.05
298.727	138
298.953	109.33
299.178	148.24
299.403	72.47
299.628	86.8
299.852	178.96
300.077	113.43
300.302	39.7
300.527	80.66
300.752	105.23
300.977	164.63
301.202	90.9
301.426	219.92
301.651	105.23
301.876	105.23
302.101	154.39
302.325	172.82
302.55	138
302.775	148.24
302.999	123.67
303.224	189.2
303.448	121.62
303.673	131.86
303.897	164.63
304.122	158.48
304.346	176.91
304.571	113.43
304.795	185.1
305.019	238.35
305.244	164.63
305.468	217.87
305.692	109.33
305.917	113.43
306.141	60.18
306.365	138
306.589	99.09
306.813	97.04
307.038	45.84
307.262	78.61
307.486	203.54
307.71	140.05
307.934	174.87
308.158	162.58
308.382	125.71
308.606	195.34
308.83	129.81
309.054	107.28
309.278	187.15
309.502	72.47
309.725	115.47
309.949	197.39
310.173	41.75
310.397	88.85
310.62	131.86
310.844	133.91
311.068	162.58
311.292	131.86
311.515	176.91
311.739	170.77
311.962	117.52
312.186	88.85
312.41	72.47
312.633	172.82
312.857	162.58
313.08	230.16
313.303	88.85
313.527	121.62
313.75	117.52
313.974	150.29
314.197	97.04
314.42	154.39
314.644	113.43
314.867	127.76
315.09	113.43
315.313	142.1
315.536	205.58
315.76	166.67
315.983	162.58
316.206	164.63
316.429	113.43
316.652	113.43
316.875	142.1
317.098	187.15
317.321	88.85
317.544	127.76
317.767	127.76
317.99	189.2
318.213	62.23
318.436	140.05
318.658	94.99
318.881	129.81
319.104	113.43
319.327	113.43
319.55	183.06
319.772	178.96
319.995	99.09
320.218	142.1
320.44	131.86
320.663	156.43
320.885	133.91
321.108	195.34
321.331	142.1
321.553	154.39
321.776	144.15
321.998	105.23
322.22	125.71
322.443	84.75
322.665	68.37
322.888	154.39
323.11	166.67
323.332	45.84
323.555	31.51
323.777	146.19
323.999	47.89
324.221	109.33
324.443	88.85
324.666	92.95
324.888	133.91
325.11	174.87
325.332	107.28
325.554	117.52
325.776	97.04
325.998	129.81
326.22	58.13
326.442	113.43
326.664	92.95
326.886	123.67
327.108	142.1
327.33	170.77
327.551	121.62
327.773	64.27
327.995	142.1
328.217	88.85
328.439	88.85
328.66	146.19
328.882	129.81
329.104	234.26
329.325	146.19
329.547	115.47
329.769	109.33
329.99	131.86
330.212	142.1
330.433	170.77
330.655	60.18
330.876	170.77
331.098	146.19
331.319	131.86
331.54	109.33
331.762	199.44
331.983	99.09
332.204	203.54
332.426	109.33
332.647	174.87
332.868	66.32
333.089	148.24
333.311	99.09
333.532	119.57
333.753	133.91
333.974	129.81
334.195	146.19
334.416	99.09
334.637	97.04
334.858	117.52
335.079	27.41
335.3	201.49
335.521	111.38
335.742	170.77
335.963	92.95
336.184	221.97
336.405	138
336.626	168.72
336.846	138
337.067	121.62
337.288	123.67
337.509	97.04
337.729	172.82
337.95	84.75
338.171	164.63
338.391	164.63
338.612	123.67
338.833	148.24
339.053	121.62
339.274	162.58
339.494	154.39
339.715	170.77
339.935	195.34
340.156	174.87
340.376	146.19
340.596	160.53
340.817	148.24
341.037	166.67
341.257	164.63
341.478	125.71
341.698	156.43
341.918	109.33
342.138	176.91
342.359	99.09
342.579	125.71
342.799	146.19
343.019	133.91
343.239	131.86
343.459	183.06
343.679	197.39
343.899	156.43
344.119	115.47
344.339	185.1
344.559	154.39
344.779	146.19
344.999	176.91
345.219	101.14
345.439	125.71
345.658	119.57
345.878	183.06
346.098	152.34
346.318	111.38
346.537	164.63
346.757	115.47
346.977	164.63
347.196	166.67
347.416	140.05
347.636	133.91
347.855	113.43
348.075	189.2
348.294	209.68
348.514	170.77
348.733	162.58
348.953	129.81
349.172	115.47
349.392	189.2
349.611	146.19
349.83	105.23
350.05	152.34
350.269	150.29
350.488	92.95
350.707	129.81
350.927	56.08
351.146	154.39
351.365	170.77
351.584	244.5
351.803	178.96
352.023	187.15
352.242	191.25
352.461	174.87
352.68	172.82
352.899	158.48
353.118	178.96
353.337	156.43
353.556	64.27
353.775	123.67
353.993	129.81
354.212	162.58
354.431	138
354.65	154.39
354.869	101.14
355.088	178.96
355.306	88.85
355.525	142.1
355.744	148.24
355.962	174.87
356.181	90.9
356.4	72.47
356.618	113.43
356.837	158.48
357.055	236.3
357.274	150.29
357.492	162.58
357.711	142.1
357.929	170.77
358.148	162.58
358.366	113.43
358.585	144.15
358.803	166.67
359.021	123.67
359.24	203.54
359.458	181.01
359.676	92.95
359.894	178.96
360.113	121.62
360.331	146.19
360.549	113.43
360.767	113.43
360.985	113.43
361.203	156.43
361.421	76.56
361.639	133.91
361.857	109.33
362.075	125.71
362.293	86.8
362.511	103.19
362.729	140.05
362.947	172.82
363.165	123.67
363.383	113.43
363.601	162.58
363.819	107.28
364.036	146.19
364.254	178.96
364.472	144.15
364.689	138
364.907	195.34
365.125	244.5
365.342	105.23
365.56	105.23
365.778	82.71
365.995	86.8
366.213	207.63
366.43	129.81
366.648	162.58
366.865	172.82
367.083	195.34
367.3	215.82
367.517	166.67
367.735	60.18
367.952	99.09
368.17	193.3
368.387	142.1
368.604	211.73
368.821	133.91
369.039	105.23
369.256	166.67
369.473	195.34
369.69	211.73
369.907	230.16
370.124	168.72
370.341	88.85
370.558	174.87
370.776	203.54
370.993	123.67
371.21	181.01
371.426	164.63
371.643	205.58
371.86	168.72
372.077	205.58
372.294	78.61
372.511	197.39
372.728	146.19
372.945	88.85
373.161	189.2
373.378	203.54
373.595	127.76
373.811	195.34
374.028	250.64
374.245	115.47
374.461	199.44
374.678	178.96
374.895	162.58
375.111	211.73
375.328	148.24
375.544	121.62
375.761	178.96
375.977	160.53
376.194	154.39
376.41	181.01
376.626	135.95
376.843	191.25
377.059	178.96
377.275	101.14
377.492	221.97
377.708	156.43
377.924	154.39
378.14	140.05
378.357	219.92
378.573	195.34
378.789	111.38
379.005	140.05
379.221	254.74
379.437	146.19
379.653	183.06
379.869	174.87
380.085	162.58
380.301	164.63
380.517	117.52
380.733	138
380.949	142.1
381.165	146.19
381.381	160.53
381.597	156.43
381.813	174.87
382.028	183.06
382.244	142.1
382.46	215.82
382.676	199.44
382.891	203.54
383.107	174.87
383.323	148.24
383.538	80.66
383.754	185.1
383.969	178.96
384.185	228.11
384.4	219.92
384.616	164.63
384.831	244.5
385.047	224.02
385.262	258.83
385.478	168.72
385.693	197.39
385.909	213.78
386.124	213.78
386.339	191.25
386.554	228.11
386.77	187.15
386.985	246.54
387.2	221.97
387.415	238.35
387.631	197.39
387.846	224.02
388.061	228.11
388.276	215.82
388.491	205.58
388.706	277.26
388.921	219.92
389.136	121.62
389.351	195.34
389.566	330.51
389.781	279.31
389.996	250.64
390.211	273.17
390.426	381.71
390.641	342.8
390.855	258.83
391.07	310.03
391.285	244.5
391.5	279.31
391.714	285.46
391.929	285.46
392.144	285.46
392.358	262.93
392.573	260.88
392.788	293.65
393.002	346.89
393.217	269.07
393.431	314.13
393.646	293.65
393.86	258.83
394.075	342.8
394.289	307.98
394.504	336.65
394.718	441.1
394.933	375.57
395.147	332.56
395.361	301.84
395.576	346.89
395.79	361.23
396.004	445.2
396.218	453.39
396.432	420.62
396.647	387.85
396.861	424.72
397.075	381.71
397.289	416.53
397.503	457.48
397.717	510.73
397.931	498.44
398.145	455.44
398.359	459.53
398.573	486.16
398.787	566.03
399.001	549.64
399.215	467.72
399.429	559.88
399.643	523.02
399.857	465.68
400.07	525.07
400.284	441.1
400.498	510.73
400.712	557.84
400.925	621.32
401.139	584.46
401.353	559.88
401.566	725.77
401.78	670.47
401.994	615.18
402.207	649.99
402.421	729.86
402.634	668.43
402.848	670.47
403.061	697.1
403.275	729.86
403.488	770.82
403.702	770.82
403.915	834.31
404.128	731.91
404.342	858.89
404.555	768.78
404.768	834.31
404.982	834.31
405.195	903.94
405.408	940.81
405.621	957.19
405.835	973.57
406.048	973.57
406.261	1026.82
406.474	951.05
406.687	1028.87
406.9	940.81
407.113	985.86
407.326	1080.07
407.539	1118.98
407.752	1161.99
407.965	1051.4
408.178	1114.88
408.391	1084.16
408.604	1266.43
408.817	1202.95
409.029	1155.84
409.242	1288.96
409.455	1272.58
409.668	1272.58
409.881	1385.21
410.093	1350.4
410.306	1354.5
410.519	1368.83
410.731	1323.78
410.944	1315.58
411.157	1315.58
411.369	1424.13
411.582	1428.22
411.794	1569.53
412.007	1530.62
412.219	1547
412.432	1565.44
412.644	1655.55
412.857	1637.11
413.069	1616.64
413.281	1694.46
413.494	1628.92
413.706	1698.55
413.918	1661.69
414.131	1803
414.343	1768.18
414.555	1753.85
414.767	1778.42
414.979	1850.1
415.192	1839.86
415.404	2022.13
415.616	2050.8
415.828	1950.45
416.04	1989.37
416.252	1993.46
416.464	1899.25
416.676	1936.12
416.888	2054.9
417.1	1968.89
417.312	2071.28
417.524	2132.72
417.736	2067.19
417.948	2145.01
418.159	2269.94
418.371	2059
418.583	2097.91
418.795	2040.56
419.007	2214.64
419.218	2231.03
419.43	2183.92
419.642	2259.7
419.853	2280.18
420.065	2165.49
420.276	2165.49
420.488	2351.86
420.7	2308.85
420.911	2257.65
421.123	2460.4
421.334	2228.98
421.546	2353.9
421.757	2376.43
421.969	2431.73
422.18	2292.46
422.391	2505.45
422.603	2435.82
422.814	2429.68
423.025	2489.07
423.237	2452.21
423.448	2540.27
423.659	2679.53
423.87	2560.75
424.082	2683.63
424.293	2669.29
424.504	2581.23
424.715	2654.96
424.926	2669.29
425.137	2579.18
425.348	2642.67
425.559	2626.28
425.77	2816.74
425.981	2661.1
426.192	2734.83
426.403	2745.07
426.614	2591.47
426.825	2638.57
427.036	2730.73
427.247	2622.19
427.458	2734.83
427.668	2824.94
427.879	2835.18
428.09	2603.76
428.301	2808.55
428.511	2747.11
428.722	2710.25
428.933	2902.76
429.143	2714.35
429.354	2693.87
429.565	2966.25
429.775	2800.36
429.986	2800.36
430.196	2693.87
430.407	2747.11
430.617	2777.83
430.828	2759.4
431.038	2734.83
431.249	2790.12
431.459	2777.83
431.669	2749.16
431.88	2726.63
432.09	2775.79
432.3	2869.99
432.511	2894.57
432.721	2757.35
432.931	3001.06
433.141	2757.35
433.351	2677.48
433.562	2902.76
433.772	2876.14
433.982	2861.8
434.192	2878.18
434.402	2829.03
434.612	2841.32
434.822	2851.56
435.032	2755.31
435.242	2685.67
435.452	2849.51
435.662	2804.46
435.872	2882.28
436.082	2876.14
436.292	2669.29
436.502	2720.49
436.711	2796.27
436.921	2720.49
437.131	2820.84
437.341	2753.26
437.551	2980.58
437.76	2849.51
437.97	2896.62
438.18	2693.87
438.389	2796.27
438.599	2757.35
438.808	2908.9
439.018	2761.45
439.228	2679.53
439.437	2880.23
439.647	2720.49
439.856	2718.44
440.066	2718.44
440.275	2759.4
440.484	2761.45
440.694	2736.87
440.903	2761.45
441.113	2609.9
441.322	2685.67
441.531	2702.06
441.741	2755.31
441.95	2669.29
442.159	2648.81
442.368	2749.16
442.577	2718.44
442.787	2646.76
442.996	2783.98
443.205	2779.88
443.414	2693.87
443.623	2728.68
443.832	2575.08
444.041	2614
444.25	2743.02
444.459	2689.77
444.668	2530.03
444.877	2714.35
445.086	2581.23
445.295	2556.65
445.504	2810.6
445.713	2562.8
445.922	2558.7
446.13	2542.32
446.339	2564.84
446.548	2427.63
446.757	2675.43
446.965	2519.79
447.174	2595.56
447.383	2507.5
447.591	2476.78
447.8	2300.66
448.009	2665.2
448.217	2714.35
448.426	2591.47
448.634	2425.58
448.843	2464.49
449.051	2534.13
449.26	2548.46
449.468	2654.96
449.677	2622.19
449.885	2575.08
450.093	2734.83
450.302	2382.58
450.51	2595.56
450.719	2460.4
450.927	2644.72
451.135	2587.37
451.343	2444.01
451.552	2474.73
451.76	2587.37
451.968	2505.45
452.176	2464.49
452.384	2474.73
452.592	2403.06
452.8	2558.7
453.009	2620.14
453.217	2536.17
453.425	2499.31
453.633	2605.8
453.841	2511.6
454.049	2558.7
454.257	2556.65
454.464	2341.62
454.672	2659.05
454.88	2437.87
455.088	2564.84
455.296	2444.01
455.504	2568.94
455.711	2497.26
455.919	2628.33
456.127	2441.97
456.335	2632.43
456.542	2595.56
456.75	2599.66
456.958	2562.8
457.165	2724.59
457.373	2468.59
457.581	2527.98
457.788	2620.14
457.996	2581.23
458.203	2534.13
458.411	2712.3
458.618	2472.69
458.826	2411.25
459.033	2530.03
459.24	2570.99
459.448	2583.28
459.655	2687.72
459.863	2663.15
460.07	2708.2
460.277	2564.84
460.484	2595.56
460.692	2575.08
460.899	2693.87
461.106	2509.55
461.313	2906.86
461.52	2603.76
461.728	2673.39
461.935	2673.39
462.142	2710.25
462.349	2587.37
462.556	2667.24
462.763	2609.9
462.97	2818.79
463.177	2638.57
463.384	2867.94
463.591	2704.11
463.798	2673.39
464.005	2808.55
464.212	2755.31
464.418	2751.21
464.625	2839.27
464.832	2726.63
465.039	2796.27
465.246	2839.27
465.452	2982.63
465.659	2794.22
465.866	2786.03
466.072	2865.9
466.279	3009.25
466.486	2882.28
466.692	2822.89
466.899	2939.62
467.105	2947.81
467.312	2874.09
467.519	2999.01
467.725	3123.94
467.931	3035.88
468.138	2992.87
468.344	3160.8
468.551	2917.1
468.757	3263.2
468.964	3412.7
469.17	2972.39
469.376	3238.63
469.583	3160.8
469.789	3234.53
469.995	3234.53
470.201	3424.99
470.408	3300.07
470.614	3357.41
470.82	3324.64
471.026	3465.95
471.232	3293.92
471.438	3255.01
471.644	3570.4
471.85	3513.05
472.056	3431.14
472.262	3640.03
472.468	3707.61
472.674	3668.7
472.88	3554.01
473.086	3840.73
473.292	3685.08
473.498	3752.67
473.704	3859.16
473.91	3824.35
474.116	3859.16
474.321	3807.96
474.527	3773.15
474.733	4000.47
474.939	3979.99
475.144	3918.55
475.35	3877.59
475.556	4104.92
475.761	4106.97
475.967	4176.6
476.173	4014.81
476.378	4324.05
476.584	4377.3
476.789	4354.77
476.995	4430.54
477.2	4356.82
477.406	4627.15
477.611	4629.2
477.817	4534.99
478.022	4440.78
478.227	4717.26
478.433	4408.02
478.638	4793.03
478.843	4770.51
479.049	4799.18
479.254	4838.09
479.459	4782.79
479.664	4799.18
479.87	4958.92
480.075	4911.82
480.28	4971.21
480.485	4782.79
480.69	4930.25
480.895	5139.14
481.1	5147.33
481.306	5262.02
481.511	5341.89
481.716	5345.99
481.921	5532.35
482.126	5290.69
482.33	5411.52
482.535	5489.34
482.74	5491.39
482.945	5565.12
483.15	5470.91
483.355	5610.17
483.56	5708.48
483.765	5462.72
483.969	5753.53
484.174	5724.86
484.379	5935.8
484.583	5759.68
484.788	5751.48
484.993	5821.11
485.197	5702.33
485.402	5665.47
485.607	5946.04
485.811	5941.95
486.016	6212.28
486.22	6025.91
486.425	6101.69
486.629	6126.26
486.834	6087.35
487.038	6169.27
487.243	6142.65
487.447	6390.45
487.652	6486.7
487.856	6273.72
488.06	6314.68
488.265	6443.7
488.469	6544.05
488.673	6668.97
488.877	6445.75
489.082	6433.46
489.286	6519.47
489.49	6548.14
489.694	6838.96
489.898	6691.5
490.102	6879.91
490.307	6855.34
490.511	6791.85
490.715	6802.09
490.919	6879.91
491.123	6789.8
491.327	7084.71
491.531	7234.21
491.735	7170.73
491.939	7174.82
492.143	7076.52
492.346	7111.34
492.55	7092.9
492.754	7086.76
492.958	7264.93
493.162	7228.07
493.366	7510.69
493.569	7559.84
493.773	7572.13
493.977	7424.67
494.18	7471.78
494.384	7522.98
494.588	7545.5
494.791	7453.35
494.995	7549.6
495.199	7643.81
495.402	7688.86
495.606	7699.1
495.809	7760.54
496.013	7701.15
496.216	7756.45
496.42	7893.66
496.623	8051.35
496.827	7727.77
497.03	8129.18
497.233	7928.47
497.437	8356.5
497.64	8147.61
497.843	8151.7
498.047	8080.02
498.25	8407.7
498.453	8223.38
498.656	8407.7
498.86	8336.02
499.063	8419.99
499.266	8258.2
499.469	8391.32
499.672	8481.43
499.875	8471.19
500.078	8759.95
500.281	8622.74
500.484	8583.82
500.687	8596.11
500.89	8485.52
501.093	8704.65
501.296	8716.94
501.499	8884.88
501.702	8751.76
501.905	8948.36
502.108	8821.39
502.311	8929.93
502.514	8960.65
502.716	9128.58
502.919	9134.73
503.122	9304.71
503.325	9357.96
503.527	9339.53
503.73	9036.43
503.933	9366.15
504.135	9271.94
504.338	9499.27
504.541	9411.2
504.743	9665.15
504.946	9472.64
505.148	9673.34
505.351	9667.2
505.553	9955.96
505.756	9968.25
505.958	9931.39
506.161	9749.12
506.363	10025.59
506.565	9908.86
506.768	10113.66
506.97	10052.22
507.172	10168.95
507.375	10355.32
507.577	10381.94
507.779	10115.71
507.982	10480.24
508.184	10179.19
508.386	10435.19
508.588	10717.81
508.79	10705.52
508.993	10541.68
509.195	10900.08
509.397	11131.5
509.599	11063.91
509.801	11147.88
510.003	11188.84
510.205	11330.15
510.407	11371.11
510.609	11414.12
510.811	11475.56
511.013	11272.81
511.215	11500.13
511.417	11608.67
511.618	11856.48
511.82	11811.42
512.022	11868.77
512.224	11795.04
512.426	11874.91
512.627	11874.91
512.829	12120.67
513.031	12255.83
513.233	12575.32
513.434	12137.05
513.636	12737.11
513.838	12520.02
514.039	12421.72
514.241	12540.5
514.442	12853.84
514.644	12993.1
514.845	12982.86
515.047	13165.13
515.248	13515.33
515.45	13371.98
515.651	13517.38
515.853	13351.5
516.054	13822.53
516.256	13859.39
516.457	13990.46
516.658	13582.92
516.86	13785.67
517.061	13974.08
517.262	14174.78
517.463	14408.25
517.665	14608.95
517.866	14422.58
518.067	14617.14
518.268	15014.45
518.469	14408.25
518.67	14580.28
518.872	14725.68
519.073	14801.46
519.274	15098.41
519.475	14899.76
519.676	15256.11
519.877	15452.71
520.078	15383.08
520.279	15272.49
520.48	15911.46
520.681	15807.01
520.881	15657.51
521.082	15827.49
521.283	15964.7
521.484	15768.1
521.685	16058.91
521.886	16214.56
522.086	16142.88
522.287	16288.28
522.488	16472.6
522.689	16407.07
522.889	16751.12
523.09	16765.46
523.291	16863.76
523.491	16964.11
523.692	17173.01
523.892	16810.52
524.093	17201.68
524.294	16982.54
524.494	17566.22
524.695	17095.18
524.895	17611.27
525.096	17451.53
525.296	17631.75
525.496	18029.06
525.697	17928.71
525.897	17201.68
526.098	17988.1
526.298	17910.27
526.498	17760.77
526.699	18113.02
526.899	18209.28
527.099	18231.81
527.299	18465.27
527.499	18301.44
527.7	18651.64
527.9	18330.11
528.1	18645.5
528.3	18364.92
528.5	18911.73
528.7	18856.44
528.9	18893.3
529.1	18833.91
529.3	19200.49
529.5	19118.58
529.7	19321.32
529.9	19243.5
530.1	19448.3
530.3	19372.52
530.5	19704.3
530.7	19519.98
530.9	19642.86
531.1	19374.57
531.3	19816.93
531.499	19988.96
531.699	20060.64
531.899	19812.84
532.099	20019.68
532.298	20183.52
532.498	20523.48
532.698	20410.84
532.897	20443.61
533.097	20283.87
533.297	20840.92
533.496	20562.39
533.696	20711.9
533.895	20689.37
534.095	20965.84
534.294	20802.01
534.494	20863.45
534.693	20769.24
534.893	21078.48
535.092	21295.57
535.292	21526.99
535.491	21475.79
535.69	21623.24
535.89	21522.89
536.089	21387.73
536.288	21275.09
536.488	21645.77
536.687	21846.47
536.886	21717.45
537.085	22047.17
537.285	22206.91
537.484	21916.1
537.683	22448.57
537.882	22200.77
538.081	22884.79
538.28	22452.67
538.479	22567.36
538.678	22053.32
538.877	22786.49
539.076	22960.57
539.275	23122.35
539.474	22849.98
539.673	23271.86
539.872	22983.09
540.071	23460.27
540.27	23091.64
540.469	23460.27
540.668	23124.4
540.867	23822.76
541.065	23382.45
541.264	23675.31
541.463	23634.35
541.662	23767.47
541.861	23882.15
542.059	24127.91
542.258	24072.61
542.457	24396.19
542.655	24549.79
542.854	24463.77
543.052	23757.23
543.251	24727.96
543.45	24252.83
543.648	24455.58
543.847	24125.86
544.045	24570.27
544.244	24705.43
544.442	24850.84
544.641	25172.37
544.839	25342.35
545.037	25012.63
545.236	25176.47
545.434	24770.97
545.632	25317.78
545.831	24988.05
546.029	25348.5
546.227	25201.04
546.426	26075.53
546.624	25684.36
546.822	25866.63
547.02	26020.23
547.218	26767.74
547.417	25833.87
547.615	26335.62
547.813	26077.57
548.011	26728.83
548.209	26501.5
548.407	26673.53
548.605	26950.01
548.803	27214.2
549.001	27169.14
549.199	27386.23
549.397	26839.42
549.595	27160.95
549.793	26847.61
549.991	27089.27
550.189	27074.93
550.387	27257.2
550.584	27472.24
550.782	27435.38
550.98	27449.71
551.178	27730.28
551.376	27529.58
551.573	27814.25
551.771	28084.58
551.969	27965.8
552.166	27933.03
552.364	28043.62
552.562	27951.47
552.759	27859.31
552.957	28096.87
553.154	28014.95
553.352	27887.98
553.55	28555.62
553.747	28127.59
553.945	28819.8
554.142	28957.02
554.339	29417.81
554.537	28813.66
554.734	29632.85
554.932	28969.31
555.129	29399.38
555.326	29290.84
555.524	29413.71
555.721	29606.22
555.918	29847.88
556.116	29761.87
556.313	30032.2
556.51	29632.85
556.707	29993.29
556.904	30101.83
557.102	30337.35
557.299	30695.74
557.496	30431.56
557.693	30513.47
557.89	30806.33
558.087	30544.19
558.284	31095.1
558.481	30083.4
558.678	31047.99
558.875	30988.6
559.072	30568.77
559.269	30998.84
559.466	31056.19
559.663	30695.74
559.86	31377.72
560.057	30888.25
560.254	31430.96
560.45	31492.4
560.647	31721.78
560.844	31109.43
561.041	31912.24
561.237	32002.35
561.434	32375.08
561.631	32186.66
561.828	32299.3
562.024	32182.57
562.221	32799.01
562.418	32784.67
562.614	32264.49
562.811	33018.14
563.007	32985.37
563.204	32395.56
563.4	32829.73
563.597	32923.93
563.793	32940.32
563.99	33497.36
564.186	33452.31
564.383	33081.63
564.579	33511.7
564.775	32936.22
564.972	33577.24
565.168	33691.92
565.365	33691.92
565.561	33452.31
565.757	33786.13
565.953	33204.51
566.15	33425.69
566.346	33550.61
566.542	34228.49
566.738	33186.07
566.934	33833.23
567.131	33466.65
567.327	33591.57
567.523	33192.22
567.719	33730.83
567.915	33442.07
568.111	33356.05
568.307	33487.12
568.503	33622.29
568.699	33851.66
568.895	34033.93
569.091	34048.27
569.287	34842.88
569.483	34279.69
569.679	34461.96
569.875	34373.9
570.07	34418.95
570.266	34486.53
570.462	35037.44
570.658	34083.08
570.854	34668.8
571.049	34885.89
571.245	35281.15
571.441	35102.97
571.636	35840.24
571.832	35047.68
572.028	35694.84
572.223	35660.02
572.419	35975.41
572.615	35418.36
572.81	35725.55
573.006	35799.28
573.201	36028.65
573.397	36309.23
573.592	36397.29
573.788	35899.63
573.983	35956.98
574.179	36202.73
574.374	36172.01
574.569	35965.17
574.765	36479.21
574.96	35021.05
575.156	36231.4
575.351	35834.1
575.546	36612.33
575.741	35860.72
575.937	36675.81
576.132	36266.22
576.327	36200.68
576.522	35932.4
576.718	36305.13
576.913	36737.25
577.108	36421.86
577.303	36395.24
577.498	36884.7
577.693	36663.52
577.888	36669.67
578.083	36507.88
578.278	36466.92
578.473	36364.52
578.668	36620.52
578.863	36503.78
579.058	36878.56
579.253	36632.8
579.448	37523.67
579.643	36917.47
579.838	38023.38
580.033	38306
580.227	37632.21
580.422	37144.8
580.617	37970.13
580.812	37253.34
581.006	37392.6
581.201	37869.78
581.396	38078.67
581.591	37417.18
581.785	37269.72
581.98	37175.52
582.175	38308.04
582.369	38027.47
582.564	38531.27
582.758	38576.33
582.953	38983.87
583.147	37935.31
583.342	38865.09
583.536	37882.07
583.731	38947.01
583.925	38901.95
584.12	39291.07
584.314	38099.15
584.509	38815.94
584.703	38572.23
584.897	38996.16
585.092	38826.18
585.286	38781.12
585.48	38553.8
585.674	38314.19
585.869	38633.67
586.063	39108.8
586.257	38404.3
586.451	38860.99
586.646	38635.72
586.84	38707.4
587.034	38086.86
587.228	39565.5
587.422	39151.81
587.616	39846.07
587.81	39438.52
588.004	39837.88
588.198	39076.03
588.392	39356.6
588.586	38430.92
588.78	39217.34
588.974	39008.45
589.168	39332.03
589.362	38899.91
589.556	39299.26
589.75	38897.86
589.944	39133.37
590.137	38944.96
590.331	39293.12
590.525	39166.14
590.719	39991.47
590.913	39766.2
591.106	39717.05
591.3	39702.71
591.494	40153.26
591.687	39917.75
591.881	39880.88
592.075	39481.53
592.268	40016.05
592.462	39733.43
592.655	39895.22
592.849	39938.23
593.043	40204.46
593.236	40231.09
593.43	40319.15
593.623	40358.06
593.817	41308.32
594.01	40802.47
594.203	40986.79
594.397	40317.1
594.59	41013.41
594.784	40321.2
594.977	40714.41
595.17	40495.27
595.364	41144.48
595.557	40839.33
595.75	41414.81
595.943	40898.72
596.137	41799.83
596.33	40822.95
596.523	41664.66
596.716	41160.86
596.909	41955.48
597.102	41498.78
597.296	41631.9
597.489	41316.51
597.682	41115.81
597.875	41334.94
598.068	41136.29
598.261	40755.37
598.454	41427.1
598.647	41064.61
598.84	42254.48
599.033	41953.43
599.226	41867.41
599.419	41668.76
599.611	41549.98
599.804	41394.33
599.997	41547.93
600.19	41371.8
600.383	41881.75
600.576	41375.9
600.768	41584.79
600.961	40859.81
601.154	41498.78
601.347	41316.51
601.539	41765.01
601.732	41980.05
601.925	42199.18
602.117	41300.13
602.31	42094.74
602.502	41752.73
602.695	42745.99
602.888	42332.3
603.08	42598.54
603.273	42887.3
603.465	42868.87
603.658	42287.25
603.85	43243.65
604.043	42758.28
604.235	42985.6
604.427	43307.13
604.62	42983.56
604.812	42340.49
605.004	42741.9
605.197	42320.01
605.389	42666.12
605.581	41969.81
605.774	42188.94
605.966	41767.06
606.158	42455.18
606.35	41336.99
606.543	42291.34
606.735	42479.76
606.927	43358.33
607.119	43339.9
607.311	43329.66
607.503	42887.3
607.695	43513.98
607.887	42551.43
608.079	43845.75
608.271	42928.26
608.463	43995.25
608.655	43294.85
608.847	43659.39
609.039	43065.47
609.231	42901.64
609.423	42676.36
609.615	43260.03
609.807	43348.09
609.999	43925.62
610.191	43452.54
610.382	43761.78
610.574	43167.87
610.766	43769.98
610.958	43053.19
611.15	43274.37
611.341	42877.06
611.533	43524.22
611.725	42958.98
611.916	43325.57
612.108	42723.46
612.3	43088
612.491	42840.2
612.683	44056.69
612.874	42610.83
613.066	43913.33
613.257	43016.32
613.449	44335.22
613.64	43708.54
613.832	43405.44
614.023	43075.71
614.215	43198.59
614.406	43886.71
614.598	44052.6
614.789	43331.71
614.98	44005.49
615.172	43028.61
615.363	43700.34
615.554	43432.06
615.746	43784.31
615.937	43950.2
616.128	43483.26
616.319	42944.64
616.511	43163.78
616.702	43217.02
616.893	43501.69
617.084	43520.12
617.275	43765.88
617.466	43397.25
617.658	44144.75
617.849	43470.97
618.04	43829.37
618.231	43753.59
618.422	43946.1
618.613	43923.57
618.804	43165.83
618.995	43724.92
619.186	44118.13
619.377	43464.83
619.568	43974.77
619.758	44007.54
619.949	44699.75
620.14	44009.59
620.331	45271.14
620.522	44855.4
620.713	45500.51
620.903	44757.1
621.094	44793.96
621.285	44159.09
621.476	45291.62
621.666	44486.76
621.857	45424.73
622.048	45303.9
622.238	45377.63
622.429	46065.75
622.62	46477.39
622.81	46151.76
623.001	46741.58
623.191	46440.53
623.382	47362.11
623.572	47079.49
623.763	47517.76
623.953	46688.33
624.144	47599.68
624.334	47194.18
624.525	48345.14
624.715	47214.66
624.905	48242.74
625.096	47462.46
625.286	47515.71
625.477	47894.58
625.667	48656.43
625.857	48771.12
626.047	48988.2
626.238	48146.49
626.428	49090.6
626.618	48361.52
626.808	49436.71
626.999	48889.9
627.189	49156.13
627.379	49594.4
627.569	49860.63
627.759	49563.68
627.949	49682.46
628.139	49432.61
628.329	49803.29
628.519	49459.23
628.709	50520.08
628.899	49487.9
629.089	50776.08
629.279	49721.37
629.469	50503.7
629.659	50067.48
629.849	50040.86
630.039	49655.84
630.229	49915.93
630.419	49295.4
630.609	49504.29
630.798	50380.82
630.988	50313.24
631.178	50425.87
631.368	50741.26
631.557	50036.76
631.747	50761.74
631.937	50690.06
632.127	50888.72
632.316	49709.09
632.506	50466.83
632.696	50298.9
632.885	50810.89
633.075	50118.68
633.264	49944.6
633.454	49438.75
633.643	50247.7
633.833	50038.81
634.022	50982.92
634.212	50411.54
634.401	50995.21
634.591	50728.97
634.78	51122.18
634.97	50231.32
635.159	51204.1
635.348	50827.28
635.538	50466.83
635.727	50417.68
635.916	50303
636.106	49842.2
636.295	49565.73
636.484	49115.17
636.674	49600.54
636.863	48973.86
637.052	50118.68
637.241	50112.54
637.43	50941.96
637.619	50180.12
637.809	50712.59
637.998	50720.78
638.187	49715.23
638.376	49877.02
638.565	49942.55
638.754	49655.84
638.943	50171.93
639.132	49262.63
639.321	49969.18
639.51	49227.81
639.699	49686.56
639.888	49025.06
640.077	50094.1
640.266	49467.42
640.455	49532.96
640.643	49172.52
640.832	49803.29
641.021	48826.41
641.21	49176.61
641.399	48883.75
641.587	49545.25
641.776	49492
641.965	49217.57
642.154	49545.25
642.342	48896.04
642.531	48648.24
642.72	48355.38
642.908	48033.85
643.097	48162.87
643.286	48527.41
643.474	49336.35
643.663	49168.42
643.851	49168.42
644.04	48498.74
644.228	48795.69
644.417	48150.58
644.605	48246.84
644.794	48257.08
644.982	48875.56
645.171	48304.18
645.359	48361.52
645.547	48048.18
645.736	48732.2
645.924	47681.6
646.112	48785.45
646.301	48623.66
646.489	48427.06
646.677	47972.41
646.866	48746.54
647.054	47935.54
647.242	48281.65
647.43	47591.49
647.618	48810.03
647.807	48173.11
647.995	48728.11
648.183	47468.61
648.371	48336.95
648.559	47697.98
648.747	47857.72
648.935	47763.51
649.123	47573.05
649.311	46979.14
649.499	48001.08
649.687	47720.51
649.875	47935.54
650.063	47718.46
650.251	47827
650.439	47812.67
650.627	48107.57
650.815	47843.39
651.003	48113.72
651.191	46843.98
651.378	47239.23
651.566	46624.84
651.754	47974.46
651.942	47059.01
652.13	47452.22
652.317	46741.58
652.505	47474.75
652.693	46866.5
652.88	48175.16
653.068	47251.52
653.256	47597.63
653.443	47603.77
653.631	47454.27
653.819	47153.22
654.006	48189.49
654.194	47081.54
654.381	47968.31
654.569	47591.49
654.756	47607.87
654.944	46835.79
655.131	47173.7
655.319	46934.09
655.506	46995.53
655.693	46495.82
655.881	47476.8
656.068	46997.57
656.256	47773.75
656.443	47822.91
656.63	48035.89
656.818	47509.57
657.005	48212.02
657.192	47683.64
657.379	48353.33
657.567	47329.35
657.754	48369.71
657.941	47577.15
658.128	47716.41
658.315	47259.71
658.502	48066.61
658.69	46813.26
658.877	47183.94
659.064	46610.51
659.251	47335.49
659.438	47669.31
659.625	48635.95
659.812	48234.55
659.999	48689.2
660.186	48009.27
660.373	47982.65
660.56	47009.86
660.747	47122.5
660.934	46936.14
661.121	47374.4
661.308	46833.74
661.494	46864.46
661.681	47218.76
661.868	47327.3
662.055	46714.95
662.242	47353.92
662.428	46641.23
662.615	47466.56
662.802	47161.41
662.989	47730.75
663.175	47276.1
663.362	47317.06
663.549	46809.16
663.735	47603.77
663.922	47237.19
664.109	47616.06
664.295	47001.67
664.482	47124.55
664.668	46770.25
664.855	47730.75
665.041	46329.94
665.228	47306.82
665.414	46192.72
665.601	46524.49
665.787	46045.27
665.974	46202.96
666.16	46436.43
666.347	46798.92
666.533	46231.63
666.719	47431.74
666.906	46706.76
667.092	46852.17
667.278	46047.32
667.465	46755.91
667.651	45752.41
667.837	46903.37
668.023	46674
668.21	46985.29
668.396	46463.05
668.582	47130.69
668.768	46454.86
668.954	46399.57
669.14	46053.46
669.327	45297.76
669.513	46026.84
669.699	46086.23
669.885	46127.19
670.071	47114.31
670.257	46600.27
670.443	46665.8
670.629	46225.49
670.815	46555.21
671.001	46092.37
671.187	46413.9
671.373	45475.93
671.559	45754.46
671.744	45254.75
671.93	45885.53
672.116	46114.9
672.302	46061.65
672.488	45109.35
672.674	45918.3
672.859	45566.04
673.045	46217.3
673.231	46022.74
673.417	46350.42
673.602	45445.21
673.788	46424.14
673.974	46522.45
674.159	46092.37
674.345	46129.24
674.531	46129.24
674.716	45541.47
674.902	45881.43
675.087	44927.08
675.273	46329.94
675.459	45326.43
675.644	46110.8
675.83	45156.45
676.015	45873.24
676.2	45459.55
676.386	45926.49
676.571	45672.54
676.757	46319.7
676.942	45867.1
677.128	47239.23
677.313	46325.84
677.498	47665.21
677.684	46843.98
677.869	47204.42
678.054	45977.69
678.24	46078.04
678.425	45492.32
678.61	45742.17
678.795	44779.62
678.98	45705.31
679.166	44656.75
679.351	45213.79
679.536	44900.45
679.721	45801.56
679.906	44902.5
680.091	45686.87
680.276	44789.86
680.461	45461.6
680.647	45355.1
680.832	46213.2
681.017	45289.57
681.202	45752.41
681.387	45320.29
681.572	45873.24
681.756	44648.55
681.941	45338.72
682.126	45240.42
682.311	44826.73
682.496	44523.63
682.681	44703.85
682.866	44820.58
683.051	44896.36
683.235	43946.1
683.42	44732.52
683.605	44730.47
683.79	45203.55
683.974	44836.97
684.159	45543.52
684.344	45150.31
684.529	45269.09
684.713	44712.04
684.898	44415.09
685.083	44470.38
685.267	44052.6
685.452	44195.95
685.636	44007.54
685.821	43360.38
686.005	43993.2
686.19	43090.05
686.375	43335.81
686.559	43759.74
686.744	44124.27
686.928	43599.99
687.112	44486.76
687.297	44169.33
687.481	44533.87
687.666	43716.73
687.85	45162.59
688.034	45011.04
688.219	45697.11
688.403	44335.22
688.587	45015.14
688.772	44595.31
688.956	45017.19
689.14	43970.68
689.324	44734.57
689.509	44316.78
689.693	44630.12
689.877	44351.6
690.061	44755.05
690.245	44513.39
690.43	44501.1
690.614	44056.69
690.798	44509.29
690.982	44150.9
691.166	45191.27
691.35	43849.85
691.534	44640.36
691.718	43817.08
691.902	44554.35
692.086	43567.23
692.27	43544.7
692.454	43071.62
692.638	43401.34
692.822	43792.5
693.006	43542.65
693.19	43274.37
693.373	43780.22
693.557	42774.66
693.741	43427.97
693.925	42543.24
694.109	43391.1
694.293	43067.52
694.476	43276.42
694.66	42750.09
694.844	43491.45
695.027	43219.07
695.211	43755.64
695.395	42381.45
695.578	43929.72
695.762	42358.93
695.946	42985.6
696.129	42240.14
696.313	42684.55
696.497	42250.38
696.68	42735.75
696.864	41930.9
697.047	42244.24
697.231	41611.42
697.414	41961.62
697.598	41730.2
697.781	42057.87
697.965	42057.87
698.148	42092.69
698.331	41390.24
698.515	42303.63
698.698	41783.45
698.881	42741.9
699.065	41810.07
699.248	42637.45
699.431	41590.94
699.615	42045.59
699.798	41656.47
699.981	42102.93
700.165	41189.54
700.348	41990.29
700.531	41214.11
700.714	41785.49
700.897	40575.14
701.08	41713.82
701.264	40552.62
701.447	41078.94
701.63	40945.83
701.813	41310.37
701.996	40704.17
702.179	41033.89
702.362	40994.98
702.545	40890.53
702.728	41549.98
702.911	41928.85
703.094	41451.68
703.277	42068.11
703.46	40634.54
703.643	40884.39
703.826	39991.47
704.009	40749.22
704.191	39909.55
704.374	40347.82
704.557	39751.86
704.74	40446.12
704.923	39725.24
705.106	40118.45
705.288	39743.67
705.471	39991.47
705.654	40014
705.837	39958.71
706.019	40022.19
706.202	40270
706.385	39737.53
706.567	40304.81
706.75	39893.17
706.932	40112.3
707.115	39276.73
707.298	39006.4
707.48	38830.28
707.663	37894.35
707.845	37294.3
708.028	38283.47
708.21	37830.87
708.393	38435.02
708.575	37671.12
708.758	37994.7
708.94	37794
709.123	37716.18
709.305	37968.08
709.487	38254.8
709.67	37763.28
709.852	38363.34
710.034	37880.02
710.217	38924.48
710.399	37910.74
710.581	38486.22
710.764	37861.59
710.946	38123.73
711.128	36774.11
711.31	37982.42
711.492	37554.39
711.675	37730.52
711.857	37433.56
712.039	37419.22
712.221	37236.96
712.403	37476.57
712.585	37200.09
712.767	37261.53
712.949	36647.14
713.131	36655.33
713.314	35948.78
713.496	36393.19
713.678	36675.81
713.86	36882.66
714.041	36684
714.223	37585.11
714.405	36647.14
714.587	37185.76
714.769	36327.66
714.951	36991.2
715.133	35930.35
715.315	36489.45
715.497	35475.7
715.678	36241.64
715.86	36446.44
716.042	36458.73
716.224	35873.01
716.406	36542.69
716.587	36169.96
716.769	35997.93
716.951	35490.04
717.132	35531
717.314	35045.63
717.496	35608.82
717.677	35062.01
717.859	35547.38
718.041	35528.95
718.222	35610.87
718.404	34918.65
718.585	35539.19
718.767	34648.32
718.948	35283.19
719.13	34658.56
719.311	35127.55
719.493	34298.12
719.674	34210.06
719.856	34367.75
720.037	34300.17
720.219	33861.9
720.4	34466.05
720.581	34062.6
720.763	34255.11
720.944	33954.06
721.125	34351.37
721.307	33632.53
721.488	34185.48
721.669	33913.1
721.85	34076.94
722.032	33882.38
722.213	34083.08
722.394	33265.94
722.575	33599.76
722.756	33585.43
722.938	33509.65
723.119	32336.17
723.3	32166.18
723.481	31861.04
723.662	32704.8
723.843	32098.6
724.024	32489.76
724.205	32213.29
724.386	32565.54
724.567	32067.88
724.748	32528.68
724.929	32100.65
725.11	32745.76
725.291	32295.21
725.472	32516.39
725.653	32592.16
725.834	32971.04
726.015	32211.24
726.196	32540.96
726.377	32000.3
726.557	31115.58
726.738	31080.76
726.919	31174.97
727.1	30560.58
727.281	30486.85
727.461	30509.38
727.642	30615.87
727.823	29950.28
728.004	30468.42
728.184	29768.01
728.365	30445.89
728.546	30032.2
728.726	30474.56
728.907	30093.64
729.087	30718.27
729.268	30624.06
729.449	30183.75
729.629	29978.95
729.81	30224.71
729.99	30228.81
730.171	30495.04
730.351	30181.7
730.532	30355.78
730.712	29479.25
730.893	29432.15
731.073	29270.36
731.253	29346.13
731.434	28660.06
731.614	29028.7
731.795	28516.7
731.975	29307.22
732.155	28815.71
732.336	28639.58
732.516	28268.9
732.696	29016.41
732.876	28754.27
733.057	28744.03
733.237	28246.37
733.417	28662.11
733.597	28377.44
733.778	28506.46
733.958	28481.89
734.138	28615.01
734.318	27820.4
734.498	28070.25
734.678	27384.18
734.858	27658.61
735.038	26777.98
735.218	27429.23
735.398	27158.9
735.579	27416.95
735.759	26950.01
735.939	26909.05
736.119	26886.52
736.298	27109.75
736.478	26685.82
736.658	26595.71
736.838	26020.23
737.018	26134.92
737.198	25891.21
737.378	26397.06
737.558	25721.23
737.738	25964.94
737.917	25958.79
738.097	25842.06
738.277	25622.92
738.457	25577.87
738.637	25262.48
738.816	25547.15
738.996	24836.5
739.176	25373.07
739.355	24895.9
739.535	25301.39
739.715	25100.69
739.894	25176.47
740.074	25004.44
740.254	24906.14
740.433	25024.92
740.613	25096.6
740.792	24994.2
740.972	25067.93
741.151	24594.84
741.331	24897.94
741.51	24603.04
741.69	24879.51
741.869	24320.42
742.049	24590.75
742.228	23734.7
742.408	24109.48
742.587	23746.99
742.766	23964.07
742.946	23808.42
743.125	23843.24
743.305	23523.76
743.484	23181.75
743.663	23128.5
743.842	23529.9
744.022	22895.03
744.201	23249.33
744.38	22739.38
744.56	22882.74
744.739	22768.06
744.918	22823.35
745.097	22618.55
745.276	22780.34
745.455	22467
745.635	22370.75
745.814	22305.22
745.993	22610.36
746.172	22006.21
746.351	22333.89
746.53	22430.14
746.709	22499.77
746.888	22413.76
747.067	22649.27
747.246	22057.41
747.425	22321.6
747.604	21758.41
747.783	22208.96
747.962	21703.11
748.141	22061.51
748.32	22104.51
748.499	22129.09
748.677	22176.19
748.856	22473.15
749.035	22012.36
749.214	22645.18
749.393	22421.95
749.572	22528.44
749.75	22407.61
749.929	22510.01
750.108	21694.92
750.287	22700.47
750.465	22374.85
750.644	22553.02
750.823	22329.79
751.001	22641.08
751.18	22247.87
751.359	22370.75
751.537	22168
751.716	22579.64
751.894	22202.82
752.073	22276.54
752.251	21864.9
752.43	22010.31
752.609	21889.48
752.787	22151.62
752.966	21707.21
753.144	22094.27
753.322	21610.95
753.501	21840.33
753.679	21832.13
753.858	22317.5
754.036	21887.43
754.215	21858.76
754.393	21742.02
754.571	21682.63
754.75	21715.4
754.928	21940.68
755.106	21705.16
755.284	21653.96
755.463	21733.83
755.641	21815.75
755.819	21627.34
755.997	21518.8
756.176	21445.07
756.354	21883.33
756.532	21244.37
756.71	21731.78
756.888	21043.67
757.066	21572.04
757.245	21225.94
757.423	21629.39
757.601	20990.42
757.779	21252.56
757.957	21244.37
758.135	21068.24
758.313	20816.34
758.491	21434.83
758.669	20935.12
758.847	20869.59
759.025	20699.61
759.203	20660.7
759.381	20355.55
759.559	20376.03
759.737	20193.76
759.915	20525.53
760.092	20165.09
760.27	20556.25
760.448	20064.74
760.626	19980.77
760.804	19702.25
760.981	19900.9
761.159	19659.24
761.337	19853.8
761.515	19843.56
761.692	19706.34
761.87	19497.45
762.048	19728.87
762.226	19464.68
762.403	19741.16
762.581	19528.17
762.759	19546.6
762.936	19163.63
763.114	18964.98
763.291	18584.06
763.469	18643.45
763.647	18115.07
763.824	18098.69
764.002	17879.55
764.179	18510.33
764.357	18180.61
764.534	17990.15
764.712	17426.95
764.889	17852.93
765.066	17426.95
765.244	17238.54
765.421	16658.97
765.599	16667.16
765.776	16865.81
765.953	16914.96
766.131	16486.94
766.308	16656.92
766.485	16374.3
766.663	16486.94
766.84	16106.01
767.017	16327.19
767.194	16239.13
767.372	16400.92
767.549	15880.74
767.726	15723.04
767.903	15520.29
768.081	15491.62
768.258	15047.21
768.435	15245.87
768.612	14959.15
768.789	14768.69
768.966	14367.29
769.143	14649.91
769.32	14332.47
769.497	14193.21
769.674	14348.86
769.851	14094.91
770.028	13974.08
770.205	13933.12
770.382	13736.51
770.559	13898.3
770.736	13632.07
770.913	13664.84
771.09	13384.26
771.267	13183.56
771.444	13384.26
771.621	13306.44
771.798	12714.58
771.975	12900.94
772.151	12733.01
772.328	12573.27
772.505	12335.7
772.682	12100.19
772.859	11788.9
773.035	12016.22
773.212	11803.23
773.389	11848.29
773.565	11330.15
773.742	11580
773.919	11278.95
774.096	11209.32
774.272	10936.94
774.449	10959.47
774.625	10912.37
774.802	10775.15
774.979	10347.13
775.155	10717.81
775.332	10181.24
775.508	10375.8
775.685	10295.93
775.861	10125.95
776.038	9986.68
776.214	10054.27
776.391	10025.59
776.567	9796.22
776.744	9792.13
776.92	9747.07
777.096	9525.89
777.273	9562.75
777.449	9218.7
777.626	9118.34
777.802	9067.15
777.978	9048.71
778.155	8962.7
778.331	8919.69
778.507	8809.1
778.683	8635.02
778.86	8430.23
779.036	8501.91
779.212	8374.93
779.388	8575.63
779.565	8080.02
779.741	8147.61
779.917	7957.15
780.093	8010.39
780.269	7985.82
780.445	7877.28
780.621	7590.56
780.797	7828.12
780.974	7496.35
781.15	7641.76
781.326	7520.93
781.502	7465.63
781.678	7215.78
781.854	7293.6
782.03	7252.65
782.206	7217.83
782.382	7105.19
782.558	6972.07
782.733	6912.68
782.909	7119.53
783.085	7002.79
783.261	6847.15
783.437	6853.29
783.613	6754.99
783.789	6722.22
783.965	6918.83
784.14	6535.86
784.316	6752.94
784.492	6734.51
784.668	6472.37
784.843	6492.85
785.019	6539.95
785.195	6292.15
785.371	6398.64
785.546	6163.13
785.722	6075.06
785.898	5997.24
786.073	5962.42
786.249	5798.59
786.424	5966.52
786.6	5675.71
786.776	5827.26
786.951	5511.87
787.127	5522.11
787.302	5571.26
787.478	5442.24
787.653	5429.95
787.829	5440.19
788.004	5284.55
788.18	5233.35
788.355	5229.25
788.531	5237.44
788.706	5122.76
788.881	5057.22
789.057	4967.11
789.232	4967.11
789.408	4842.19
789.583	4752.08
789.758	4784.84
789.934	4913.86
790.109	4561.61
790.284	4813.51
790.459	4567.76
790.635	4565.71
790.81	4571.85
790.985	4446.93
791.16	4387.54
791.336	4438.74
791.511	4186.84
791.686	4344.53
791.861	4283.09
792.036	4301.52
792.211	4129.49
792.387	4141.78
792.562	4416.21
792.737	4143.83
792.912	3959.51
793.087	4055.77
793.262	4004.57
793.437	4045.53
793.612	3887.83
793.787	3939.03
793.962	3711.71
794.137	3680.99
794.312	3660.51
794.487	3779.29
794.662	3726.04
794.837	3736.28
795.011	3670.75
795.186	3676.89
795.361	3676.89
795.536	3576.54
795.711	3631.84
795.886	3556.06
796.06	3474.14
796.235	3314.4
796.41	3298.02
796.585	3377.89
796.76	3365.6
796.934	3300.07
797.109	3259.11
797.284	3345.12
797.458	3386.08
797.633	3345.12
797.808	3236.58
797.982	3201.76
798.157	3136.23
798.332	3203.81
798.506	3171.04
798.681	3185.38
798.855	3060.45
799.03	2908.9
799.204	3105.51
799.379	3128.04
799.553	2982.63
799.728	2986.73
799.902	3021.54
800.077	2992.87
800.251	2943.72
800.426	2976.49
800.6	2865.9
800.775	2935.53
800.949	2833.13
801.123	2792.17
801.298	2804.46
801.472	2904.81
801.647	2800.36
801.821	2826.98
801.995	2808.55
802.169	2753.26
802.344	2677.48
802.518	2747.11
802.692	2661.1
802.867	2833.13
803.041	2673.39
803.215	2611.95
803.389	2726.63
803.563	2628.33
803.737	2593.52
803.912	2708.2
804.086	2693.87
804.26	2489.07
804.434	2546.41
804.608	2636.52
804.782	2441.97
804.956	2704.11
805.13	2587.37
805.304	2527.98
805.478	2616.04
805.652	2607.85
805.826	2482.93
806	2419.44
806.174	2466.54
806.348	2511.6
806.522	2466.54
806.696	2480.88
806.87	2431.73
807.044	2403.06
807.218	2349.81
807.392	2407.15
807.566	2394.86
807.739	2347.76
807.913	2333.42
808.087	2284.27
808.261	2437.87
808.435	2331.38
808.608	2317.04
808.782	2423.53
808.956	2448.11
809.13	2341.62
809.303	2380.53
809.477	2327.28
809.651	2251.51
809.824	2423.53
809.998	2310.9
810.172	2366.19
810.345	2394.86
810.519	2374.38
810.692	2257.65
810.866	2411.25
811.04	2228.98
811.213	2292.46
811.387	2317.04
811.56	2333.42
811.734	2300.66
811.907	2347.76
812.081	2360.05
812.254	2423.53
812.428	2341.62
812.601	2337.52
812.774	2271.99
812.948	2358
813.121	2276.08
813.295	2415.34
813.468	2366.19
813.641	2384.62
813.815	2294.51
813.988	2351.86
814.161	2267.89
814.335	2458.35
814.508	2386.67
814.681	2243.31
814.854	2271.99
815.028	2200.31
815.201	2269.94
815.374	2366.19
815.547	2331.38
815.72	2304.75
815.894	2228.98
816.067	2271.99
816.24	2235.12
816.413	2163.44
816.586	2231.03
816.759	2251.51
816.932	2312.94
817.105	2214.64
817.278	2237.17
817.452	2245.36
817.625	2208.5
817.798	2188.02
817.971	2206.45
818.144	2288.37
818.317	2261.75
818.49	2341.62
818.662	2259.7
818.835	2280.18
819.008	2251.51
819.181	2265.84
819.354	2181.87
819.527	2226.93
819.7	2241.27
819.873	2304.75
820.046	2157.3
820.218	2218.74
820.391	2149.11
820.564	2329.33
820.737	2263.79
820.909	2145.01
821.082	2214.64
821.255	2257.65
821.428	2120.44
821.6	2104.05
821.773	2206.45
821.946	2308.85
822.118	2095.86
822.291	2292.46
822.464	2286.32
822.636	2194.16
822.809	2112.24
822.982	2214.64
823.154	2173.68
823.327	2140.92
823.499	2104.05
823.672	2245.36
823.844	2120.44
824.017	2128.63
824.189	2079.48
824.362	2173.68
824.534	2054.9
824.707	2087.67
824.879	2185.97
825.052	2104.05
825.224	2102
825.396	2112.24
825.569	2132.72
825.741	2138.87
825.914	2022.13
826.086	2251.51
826.258	2204.4
826.431	2173.68
826.603	2239.22
826.775	2194.16
826.947	2153.2
827.12	2142.96
827.292	2099.96
827.464	2042.61
827.636	2034.42
827.809	2089.72
827.981	1932.02
828.153	1991.41
828.325	2095.86
828.497	2054.9
828.669	2122.48
828.842	1991.41
829.014	2173.68
829.186	2036.47
829.358	1999.61
829.53	2151.15
829.702	2005.75
829.874	2112.24
830.046	2022.13
830.218	2059
830.39	1975.03
830.562	2030.32
830.734	2079.48
830.906	2042.61
831.078	1901.3
831.25	2065.14
831.422	2081.52
831.594	1983.22
831.766	1950.45
831.937	1970.93
832.109	1999.61
832.281	1997.56
832.453	1917.69
832.625	1966.84
832.797	1858.3
832.968	1919.73
833.14	1891.06
833.312	1907.45
833.484	1972.98
833.655	1794.81
833.827	1899.25
833.999	1889.01
834.171	1923.83
834.342	1891.06
834.514	1915.64
834.686	1919.73
834.857	2013.94
835.029	1903.35
835.2	1852.15
835.372	1813.24
835.544	1817.34
835.715	1827.58
835.887	1936.12
836.058	1821.43
836.23	1991.41
836.401	1886.97
836.573	1835.77
836.744	1821.43
836.916	1866.49
837.087	1886.97
837.259	1780.47
837.43	1770.23
837.602	1927.93
837.773	1854.2
837.945	1786.62
838.116	1827.58
838.287	1841.91
838.459	1893.11
838.63	1729.27
838.801	1710.84
838.973	1815.29
839.144	1821.43
839.315	1809.14
839.487	1772.28
839.658	1710.84
839.829	1817.34
840	1817.34
840.172	1827.58
840.343	1852.15
840.514	1858.3
840.685	1809.14
840.856	1895.16
841.027	1735.42
841.199	1721.08
841.37	1598.2
841.541	1786.62
841.712	1782.52
841.883	1768.18
842.054	1737.47
842.225	1762.04
842.396	1704.7
842.567	1639.16
842.738	1620.73
842.909	1704.7
843.08	1592.06
843.251	1641.21
843.422	1524.48
843.593	1596.16
843.764	1653.5
843.935	1606.4
844.106	1696.51
844.277	1639.16
844.448	1590.01
844.619	1667.83
844.79	1647.35
844.96	1639.16
845.131	1563.39
845.302	1633.02
845.473	1524.48
845.644	1520.38
845.814	1612.54
845.985	1559.29
846.156	1471.23
846.327	1553.15
846.497	1567.48
846.668	1456.89
846.839	1516.28
847.01	1460.99
847.18	1520.38
847.351	1518.33
847.522	1358.59
847.692	1432.32
847.863	1334.02
848.033	1393.41
848.204	1383.17
848.375	1317.63
848.545	1411.84
848.716	1362.69
848.886	1440.51
849.057	1432.32
849.227	1417.98
849.398	1334.02
849.568	1235.71
849.739	1420.03
849.909	1288.96
850.08	1344.26
850.25	1293.06
850.421	1319.68
850.591	1342.21
850.761	1280.77
850.932	1241.86
851.102	1231.62
851.272	1366.78
851.443	1276.67
851.613	1284.86
851.783	1278.72
851.954	1237.76
852.124	1239.81
852.294	1215.23
852.465	1264.38
852.635	1237.76
852.805	1233.66
852.975	1153.79
853.145	1192.71
853.316	1207.04
853.486	1194.75
853.656	1231.62
853.826	1147.65
853.996	1227.52
854.166	1182.47
854.337	1194.75
854.507	1125.12
854.677	1182.47
854.847	1207.04
855.017	1129.22
855.187	1145.6
855.357	1180.42
855.527	1116.93
855.697	1137.41
855.867	1080.07
856.037	1006.34
856.207	1145.6
856.377	1016.58
856.547	1086.21
856.717	1131.27
856.887	1086.21
857.057	1100.55
857.227	1049.35
857.397	1022.72
857.566	1049.35
857.736	1039.11
857.906	961.29
858.076	1016.58
858.246	1049.35
858.416	1016.58
858.585	989.96
858.755	961.29
858.925	959.24
859.095	1030.92
859.264	852.74
859.434	920.33
859.604	887.56
859.774	844.55
859.943	1022.72
860.113	961.29
860.283	932.61
860.452	1049.35
860.622	987.91
860.791	981.76
860.961	930.57
861.131	924.42
861.3	842.5
861.47	879.37
861.639	811.78
861.809	885.51
861.978	858.89
862.148	834.31
862.318	889.61
862.487	932.61
862.657	899.85
862.826	916.23
862.995	828.17
863.165	901.89
863.334	873.22
863.504	899.85
863.673	852.74
863.843	817.93
864.012	838.41
864.181	903.94
864.351	893.7
864.52	850.69
864.689	846.6
864.859	862.98
865.028	852.74
865.197	756.49
865.366	830.22
865.536	817.93
865.705	828.17
865.874	891.65
866.043	848.65
866.213	783.11
866.382	797.45
866.551	695.05
866.72	787.21
866.889	883.46
867.059	756.49
867.228	805.64
867.397	842.5
867.566	805.64
867.735	762.63
867.904	826.12
868.073	785.16
868.242	709.38
868.411	805.64
868.58	774.92
868.749	703.24
868.918	768.78
869.087	781.06
869.256	834.31
869.425	674.57
869.594	719.62
869.763	744.2
869.932	748.3
870.101	725.77
870.27	748.3
870.439	789.26
870.608	727.82
870.777	715.53
870.945	666.38
871.114	613.13
871.283	729.86
871.452	647.95
871.621	641.8
871.789	758.54
871.958	637.71
872.127	643.85
872.296	656.14
872.464	727.82
872.633	682.76
872.802	701.19
872.971	682.76
873.139	647.95
873.308	670.47
873.477	649.99
873.645	629.51
873.814	649.99
873.983	744.2
874.151	654.09
874.32	619.27
874.488	654.09
874.657	707.34
874.826	686.86
874.994	662.28
875.163	631.56
875.331	670.47
875.5	609.03
875.668	736.01
875.837	717.58
876.005	705.29
876.174	738.06
876.342	621.32
876.51	600.84
876.679	555.79
876.847	647.95
877.016	596.75
877.184	623.37
877.352	600.84
877.521	633.61
877.689	609.03
877.857	641.8
878.026	598.79
878.194	641.8
878.362	645.9
878.531	606.99
878.699	547.6
878.867	475.92
879.036	613.13
879.204	604.94
879.372	609.03
879.54	557.84
879.708	563.98
879.877	563.98
880.045	637.71
880.213	588.55
880.381	590.6
880.549	598.79
880.717	584.46
880.885	606.99
881.054	580.36
881.222	566.03
881.39	566.03
881.558	551.69
881.726	609.03
881.894	496.4
882.062	570.12
882.23	494.35
882.398	678.67
882.566	551.69
882.734	541.45
882.902	541.45
883.07	658.19
883.238	514.83
883.406	484.11
883.574	547.6
883.741	611.08
883.909	596.75
884.077	627.47
884.245	549.64
884.413	494.35
884.581	473.87
884.749	543.5
884.916	516.88
885.084	557.84
885.252	543.5
885.42	533.26
885.587	531.21
885.755	551.69
885.923	555.79
886.091	559.88
886.258	574.22
886.426	580.36
886.594	518.92
886.761	588.55
886.929	531.21
887.097	523.02
887.264	533.26
887.432	604.94
887.6	574.22
887.767	588.55
887.935	559.88
888.102	498.44
888.27	566.03
888.438	533.26
888.605	566.03
888.773	537.36
888.94	508.68
889.108	502.54
889.275	494.35
889.443	551.69
889.61	477.96
889.778	498.44
889.945	555.79
890.112	537.36
890.28	473.87
890.447	547.6
890.615	555.79
890.782	572.17
890.949	512.78
891.117	600.84
891.284	490.25
891.452	627.47
891.619	576.27
891.786	531.21
891.953	510.73
892.121	531.21
892.288	477.96
892.455	449.29
892.623	506.64
892.79	482.06
892.957	527.12
893.124	506.64
893.291	473.87
893.459	510.73
893.626	547.6
893.793	514.83
893.96	506.64
894.127	529.16
894.294	486.16
894.461	475.92
894.629	516.88
894.796	531.21
894.963	621.32
895.13	596.75
895.297	496.4
895.464	467.72
895.631	539.4
895.798	543.5
895.965	594.7
896.132	596.75
896.299	500.49
896.466	541.45
896.633	555.79
896.8	504.59
896.967	482.06
897.134	504.59
897.301	555.79
897.467	514.83
897.634	471.82
897.801	563.98
897.968	469.77
898.135	498.44
898.302	486.16
898.469	508.68
898.635	453.39
898.802	516.88
898.969	477.96
899.136	484.11
899.303	467.72
