Data from light_USB4E013581_00005.txt Node
Date: Wed May 08 15:04:40 EDT 2019
User: dh1006
Spectrometer: USB4E01358
Autoset integration time: false
Trigger mode: 4
Integration Time (sec): 2.925000E-2
Scans to average: 1
Electric dark correction enabled: true
Nonlinearity correction enabled: false
Boxcar width: 0
Stray light correction enabled: false
XAxis mode: Wavelengths
Stop averaging: false
Number of Pixels in Spectrum: 3648
>>>>>Begin Spectral Data<<<<<
176.727	-85.23
176.966	-85.23
177.205	-85.23
177.444	-56.56
177.683	43.8
177.922	80.66
178.161	54.03
178.4	37.65
178.638	-42.22
178.877	45.84
179.116	-27.88
179.355	78.61
179.593	41.75
179.832	29.46
180.071	111.38
180.309	54.03
180.548	-62.7
180.786	45.84
181.025	72.47
181.263	105.23
181.502	56.08
181.74	76.56
181.979	74.51
182.217	62.23
182.456	152.34
182.694	45.84
182.932	49.94
183.17	103.19
183.409	80.66
183.647	66.32
183.885	72.47
184.123	90.9
184.361	123.67
184.6	49.94
184.838	97.04
185.076	54.03
185.314	88.85
185.552	135.95
185.79	17.17
186.028	45.84
186.266	135.95
186.503	82.71
186.741	23.32
186.979	129.81
187.217	86.8
187.455	105.23
187.693	47.89
187.93	82.71
188.168	82.71
188.406	76.56
188.643	56.08
188.881	115.47
189.119	107.28
189.356	84.75
189.594	70.42
189.831	47.89
190.069	86.8
190.306	105.23
190.543	131.86
190.781	64.27
191.018	23.32
191.256	119.57
191.493	90.9
191.73	54.03
191.967	80.66
192.205	111.38
192.442	94.99
192.679	49.94
192.916	45.84
193.153	33.56
193.39	54.03
193.628	58.13
193.865	148.24
194.102	131.86
194.339	103.19
194.576	66.32
194.813	58.13
195.049	45.84
195.286	27.41
195.523	99.09
195.76	70.42
195.997	68.37
196.234	92.95
196.47	72.47
196.707	111.38
196.944	86.8
197.18	-7.4
197.417	111.38
197.654	51.99
197.89	70.42
198.127	94.99
198.363	54.03
198.6	76.56
198.836	168.72
199.073	84.75
199.309	66.32
199.546	41.75
199.782	113.43
200.018	111.38
200.255	119.57
200.491	131.86
200.727	62.23
200.963	62.23
201.199	90.9
201.436	127.76
201.672	54.03
201.908	62.23
202.144	129.81
202.38	78.61
202.616	94.99
202.852	135.95
203.088	144.15
203.324	62.23
203.56	82.71
203.796	99.09
204.032	37.65
204.268	82.71
204.503	23.32
204.739	105.23
204.975	62.23
205.211	150.29
205.446	74.51
205.682	70.42
205.918	144.15
206.153	119.57
206.389	107.28
206.625	62.23
206.86	92.95
207.096	103.19
207.331	97.04
207.567	135.95
207.802	115.47
208.037	113.43
208.273	97.04
208.508	152.34
208.744	86.8
208.979	88.85
209.214	105.23
209.449	21.27
209.685	97.04
209.92	127.76
210.155	131.86
210.39	127.76
210.625	62.23
210.86	140.05
211.095	78.61
211.33	135.95
211.565	148.24
211.8	2.84
212.035	125.71
212.27	62.23
212.505	13.08
212.74	156.43
212.975	56.08
213.21	111.38
213.444	88.85
213.679	101.14
213.914	45.84
214.149	70.42
214.383	107.28
214.618	107.28
214.853	13.08
215.087	127.76
215.322	103.19
215.556	119.57
215.791	107.28
216.025	135.95
216.26	113.43
216.494	152.34
216.729	49.94
216.963	74.51
217.197	74.51
217.432	82.71
217.666	72.47
217.9	113.43
218.135	45.84
218.369	94.99
218.603	99.09
218.837	86.8
219.071	51.99
219.306	76.56
219.54	123.67
219.774	62.23
220.008	66.32
220.242	94.99
220.476	37.65
220.71	92.95
220.944	99.09
221.178	58.13
221.411	82.71
221.645	62.23
221.879	111.38
222.113	138
222.347	13.08
222.58	86.8
222.814	78.61
223.048	138
223.281	135.95
223.515	31.51
223.749	74.51
223.982	70.42
224.216	111.38
224.449	103.19
224.683	133.91
224.916	92.95
225.15	123.67
225.383	86.8
225.617	117.52
225.85	94.99
226.083	15.12
226.317	47.89
226.55	58.13
226.783	31.51
227.016	105.23
227.25	113.43
227.483	62.23
227.716	72.47
227.949	76.56
228.182	56.08
228.415	131.86
228.648	127.76
228.881	49.94
229.114	131.86
229.347	94.99
229.58	8.98
229.813	103.19
230.046	209.68
230.279	144.15
230.512	94.99
230.745	156.43
230.977	72.47
231.21	76.56
231.443	94.99
231.675	135.95
231.908	156.43
232.141	60.18
232.373	117.52
232.606	58.13
232.839	90.9
233.071	49.94
233.304	119.57
233.536	181.01
233.769	127.76
234.001	84.75
234.233	45.84
234.466	72.47
234.698	74.51
234.93	88.85
235.163	107.28
235.395	113.43
235.627	158.48
235.86	88.85
236.092	148.24
236.324	133.91
236.556	111.38
236.788	58.13
237.02	86.8
237.252	78.61
237.484	127.76
237.716	135.95
237.948	43.8
238.18	66.32
238.412	92.95
238.644	37.65
238.876	70.42
239.108	127.76
239.34	17.17
239.571	21.27
239.803	70.42
240.035	43.8
240.267	129.81
240.498	88.85
240.73	168.72
240.962	35.6
241.193	64.27
241.425	90.9
241.656	78.61
241.888	97.04
242.119	84.75
242.351	88.85
242.582	148.24
242.814	27.41
243.045	66.32
243.277	127.76
243.508	80.66
243.739	80.66
243.971	109.33
244.202	115.47
244.433	140.05
244.664	49.94
244.896	129.81
245.127	88.85
245.358	113.43
245.589	115.47
245.82	33.56
246.051	107.28
246.282	29.46
246.513	138
246.744	51.99
246.975	142.1
247.206	99.09
247.437	138
247.668	97.04
247.899	45.84
248.129	103.19
248.36	29.46
248.591	84.75
248.822	70.42
249.052	88.85
249.283	135.95
249.514	103.19
249.744	101.14
249.975	94.99
250.206	148.24
250.436	86.8
250.667	97.04
250.897	90.9
251.128	82.71
251.358	135.95
251.589	80.66
251.819	29.46
252.049	80.66
252.28	160.53
252.51	105.23
252.74	115.47
252.971	88.85
253.201	99.09
253.431	97.04
253.661	111.38
253.891	82.71
254.121	47.89
254.352	129.81
254.582	62.23
254.812	88.85
255.042	58.13
255.272	94.99
255.502	90.9
255.732	8.98
255.962	164.63
256.192	70.42
256.421	78.61
256.651	56.08
256.881	90.9
257.111	72.47
257.341	172.82
257.57	97.04
257.8	78.61
258.03	54.03
258.259	123.67
258.489	80.66
258.719	62.23
258.948	111.38
259.178	82.71
259.407	166.67
259.637	88.85
259.866	82.71
260.096	54.03
260.325	111.38
260.555	56.08
260.784	64.27
261.013	138
261.243	123.67
261.472	140.05
261.701	111.38
261.931	129.81
262.16	64.27
262.389	160.53
262.618	86.8
262.847	86.8
263.076	107.28
263.305	148.24
263.535	2.84
263.764	70.42
263.993	33.56
264.222	72.47
264.451	90.9
264.679	135.95
264.908	105.23
265.137	103.19
265.366	144.15
265.595	37.65
265.824	68.37
266.053	101.14
266.281	99.09
266.51	86.8
266.739	152.34
266.967	74.51
267.196	88.85
267.425	111.38
267.653	127.76
267.882	117.52
268.11	54.03
268.339	72.47
268.567	129.81
268.796	86.8
269.024	135.95
269.253	97.04
269.481	97.04
269.709	94.99
269.938	105.23
270.166	88.85
270.394	88.85
270.623	60.18
270.851	54.03
271.079	41.75
271.307	94.99
271.535	125.71
271.764	74.51
271.992	86.8
272.22	97.04
272.448	123.67
272.676	176.91
272.904	88.85
273.132	25.36
273.36	127.76
273.588	54.03
273.816	133.91
274.043	78.61
274.271	115.47
274.499	92.95
274.727	70.42
274.955	51.99
275.182	62.23
275.41	162.58
275.638	187.15
275.866	41.75
276.093	101.14
276.321	70.42
276.548	84.75
276.776	97.04
277.003	99.09
277.231	58.13
277.458	80.66
277.686	62.23
277.913	41.75
278.141	62.23
278.368	41.75
278.595	90.9
278.823	103.19
279.05	181.01
279.277	62.23
279.505	119.57
279.732	99.09
279.959	117.52
280.186	123.67
280.413	64.27
280.641	123.67
280.868	164.63
281.095	70.42
281.322	111.38
281.549	84.75
281.776	82.71
282.003	135.95
282.23	105.23
282.457	33.56
282.683	72.47
282.91	41.75
283.137	138
283.364	138
283.591	70.42
283.818	58.13
284.044	72.47
284.271	76.56
284.498	113.43
284.724	119.57
284.951	82.71
285.178	119.57
285.404	127.76
285.631	156.43
285.857	58.13
286.084	90.9
286.31	119.57
286.537	97.04
286.763	103.19
286.99	70.42
287.216	123.67
287.442	92.95
287.669	146.19
287.895	156.43
288.121	97.04
288.347	152.34
288.574	111.38
288.8	56.08
289.026	107.28
289.252	131.86
289.478	140.05
289.704	88.85
289.931	123.67
290.157	131.86
290.383	129.81
290.609	80.66
290.835	144.15
291.06	133.91
291.286	135.95
291.512	-3.31
291.738	121.62
291.964	162.58
292.19	15.12
292.416	58.13
292.641	54.03
292.867	49.94
293.093	152.34
293.319	47.89
293.544	54.03
293.77	33.56
293.995	88.85
294.221	47.89
294.447	94.99
294.672	82.71
294.898	78.61
295.123	31.51
295.349	160.53
295.574	131.86
295.799	103.19
296.025	103.19
296.25	121.62
296.476	66.32
296.701	72.47
296.926	111.38
297.151	160.53
297.377	164.63
297.602	86.8
297.827	90.9
298.052	123.67
298.277	58.13
298.502	123.67
298.727	82.71
298.953	64.27
299.178	76.56
299.403	72.47
299.628	76.56
299.852	152.34
300.077	94.99
300.302	74.51
300.527	58.13
300.752	76.56
300.977	90.9
301.202	107.28
301.426	90.9
301.651	68.37
301.876	45.84
302.101	37.65
302.325	94.99
302.55	129.81
302.775	27.41
302.999	88.85
303.224	135.95
303.448	178.96
303.673	88.85
303.897	78.61
304.122	135.95
304.346	103.19
304.571	88.85
304.795	58.13
305.019	60.18
305.244	82.71
305.468	105.23
305.692	29.46
305.917	54.03
306.141	37.65
306.365	70.42
306.589	146.19
306.813	144.15
307.038	68.37
307.262	68.37
307.486	97.04
307.71	37.65
307.934	135.95
308.158	121.62
308.382	64.27
308.606	86.8
308.83	94.99
309.054	62.23
309.278	62.23
309.502	88.85
309.725	125.71
309.949	160.53
310.173	125.71
310.397	111.38
310.62	78.61
310.844	62.23
311.068	99.09
311.292	70.42
311.515	54.03
311.739	135.95
311.962	113.43
312.186	43.8
312.41	27.41
312.633	47.89
312.857	97.04
313.08	164.63
313.303	78.61
313.527	109.33
313.75	72.47
313.974	45.84
314.197	86.8
314.42	39.7
314.644	135.95
314.867	140.05
315.09	35.6
315.313	111.38
315.536	138
315.76	103.19
315.983	187.15
316.206	152.34
316.429	86.8
316.652	125.71
316.875	94.99
317.098	62.23
317.321	82.71
317.544	105.23
317.767	86.8
317.99	127.76
318.213	146.19
318.436	99.09
318.658	131.86
318.881	105.23
319.104	138
319.327	144.15
319.55	121.62
319.772	82.71
319.995	74.51
320.218	90.9
320.44	135.95
320.663	181.01
320.885	78.61
321.108	250.64
321.331	123.67
321.553	94.99
321.776	121.62
321.998	70.42
322.22	144.15
322.443	123.67
322.665	117.52
322.888	62.23
323.11	94.99
323.332	111.38
323.555	144.15
323.777	185.1
323.999	88.85
324.221	92.95
324.443	162.58
324.666	170.77
324.888	107.28
325.11	127.76
325.332	127.76
325.554	94.99
325.776	58.13
325.998	164.63
326.22	146.19
326.442	158.48
326.664	54.03
326.886	94.99
327.108	107.28
327.33	86.8
327.551	127.76
327.773	129.81
327.995	86.8
328.217	94.99
328.439	103.19
328.66	125.71
328.882	121.62
329.104	58.13
329.325	35.6
329.547	86.8
329.769	43.8
329.99	154.39
330.212	86.8
330.433	113.43
330.655	123.67
330.876	127.76
331.098	47.89
331.319	113.43
331.54	99.09
331.762	205.58
331.983	107.28
332.204	121.62
332.426	111.38
332.647	41.75
332.868	111.38
333.089	115.47
333.311	94.99
333.532	144.15
333.753	129.81
333.974	140.05
334.195	148.24
334.416	146.19
334.637	62.23
334.858	105.23
335.079	76.56
335.3	160.53
335.521	133.91
335.742	119.57
335.963	37.65
336.184	156.43
336.405	154.39
336.626	199.44
336.846	86.8
337.067	168.72
337.288	92.95
337.509	121.62
337.729	135.95
337.95	119.57
338.171	97.04
338.391	176.91
338.612	119.57
338.833	115.47
339.053	138
339.274	92.95
339.494	176.91
339.715	113.43
339.935	86.8
340.156	189.2
340.376	45.84
340.596	178.96
340.817	74.51
341.037	70.42
341.257	86.8
341.478	111.38
341.698	129.81
341.918	86.8
342.138	123.67
342.359	142.1
342.579	146.19
342.799	86.8
343.019	88.85
343.239	154.39
343.459	78.61
343.679	97.04
343.899	103.19
344.119	158.48
344.339	152.34
344.559	185.1
344.779	66.32
344.999	144.15
345.219	140.05
345.439	131.86
345.658	115.47
345.878	144.15
346.098	99.09
346.318	105.23
346.537	133.91
346.757	176.91
346.977	127.76
347.196	113.43
347.416	54.03
347.636	86.8
347.855	176.91
348.075	111.38
348.294	135.95
348.514	103.19
348.733	146.19
348.953	142.1
349.172	133.91
349.392	127.76
349.611	94.99
349.83	86.8
350.05	119.57
350.269	103.19
350.488	146.19
350.707	140.05
350.927	54.03
351.146	62.23
351.365	41.75
351.584	115.47
351.803	80.66
352.023	195.34
352.242	72.47
352.461	72.47
352.68	133.91
352.899	92.95
353.118	127.76
353.337	127.76
353.556	76.56
353.775	37.65
353.993	94.99
354.212	105.23
354.431	107.28
354.65	138
354.869	64.27
355.088	168.72
355.306	17.17
355.525	105.23
355.744	135.95
355.962	119.57
356.181	176.91
356.4	111.38
356.618	103.19
356.837	144.15
357.055	45.84
357.274	135.95
357.492	123.67
357.711	111.38
357.929	88.85
358.148	107.28
358.366	97.04
358.585	138
358.803	176.91
359.021	150.29
359.24	68.37
359.458	60.18
359.676	131.86
359.894	94.99
360.113	135.95
360.331	78.61
360.549	56.08
360.767	86.8
360.985	107.28
361.203	111.38
361.421	105.23
361.639	115.47
361.857	49.94
362.075	127.76
362.293	174.87
362.511	74.51
362.729	144.15
362.947	111.38
363.165	135.95
363.383	129.81
363.601	90.9
363.819	103.19
364.036	105.23
364.254	88.85
364.472	127.76
364.689	88.85
364.907	158.48
365.125	144.15
365.342	37.65
365.56	127.76
365.778	193.3
365.995	193.3
366.213	105.23
366.43	146.19
366.648	86.8
366.865	127.76
367.083	148.24
367.3	162.58
367.517	121.62
367.735	62.23
367.952	148.24
368.17	164.63
368.387	99.09
368.604	160.53
368.821	115.47
369.039	94.99
369.256	68.37
369.473	78.61
369.69	107.28
369.907	129.81
370.124	94.99
370.341	144.15
370.558	37.65
370.776	99.09
370.993	201.49
371.21	111.38
371.426	94.99
371.643	144.15
371.86	97.04
372.077	142.1
372.294	82.71
372.511	152.34
372.728	97.04
372.945	148.24
373.161	135.95
373.378	47.89
373.595	123.67
373.811	138
374.028	127.76
374.245	119.57
374.461	119.57
374.678	176.91
374.895	125.71
375.111	160.53
375.328	129.81
375.544	99.09
375.761	150.29
375.977	144.15
376.194	123.67
376.41	127.76
376.626	152.34
376.843	62.23
377.059	119.57
377.275	123.67
377.492	144.15
377.708	144.15
377.924	97.04
378.14	166.67
378.357	172.82
378.573	127.76
378.789	127.76
379.005	238.35
379.221	193.3
379.437	166.67
379.653	88.85
379.869	127.76
380.085	135.95
380.301	168.72
380.517	146.19
380.733	146.19
380.949	152.34
381.165	123.67
381.381	230.16
381.597	135.95
381.813	183.06
382.028	111.38
382.244	234.26
382.46	113.43
382.676	135.95
382.891	144.15
383.107	154.39
383.323	162.58
383.538	178.96
383.754	238.35
383.969	172.82
384.185	144.15
384.4	135.95
384.616	170.77
384.831	226.06
385.047	142.1
385.262	189.2
385.478	176.91
385.693	174.87
385.909	172.82
386.124	176.91
386.339	191.25
386.554	127.76
386.77	193.3
386.985	195.34
387.2	144.15
387.415	115.47
387.631	138
387.846	146.19
388.061	152.34
388.276	160.53
388.491	146.19
388.706	178.96
388.921	238.35
389.136	244.5
389.351	252.69
389.566	185.1
389.781	213.78
389.996	246.54
390.211	248.59
390.426	273.17
390.641	228.11
390.855	197.39
391.07	303.89
391.285	246.54
391.5	301.84
391.714	295.7
391.929	291.6
392.144	221.97
392.358	242.45
392.573	279.31
392.788	342.8
393.002	193.3
393.217	271.12
393.431	172.82
393.646	271.12
393.86	269.07
394.075	324.37
394.289	295.7
394.504	299.79
394.718	357.13
394.933	353.04
395.147	357.13
395.361	328.46
395.576	383.76
395.79	373.52
396.004	363.28
396.218	357.13
396.432	328.46
396.647	373.52
396.861	305.94
397.075	457.48
397.289	387.85
397.503	381.71
397.717	389.9
397.931	447.24
398.145	377.61
398.359	439.05
398.573	437.01
398.787	535.31
399.001	424.72
399.215	537.36
399.429	459.53
399.643	459.53
399.857	512.78
400.07	586.51
400.284	541.45
400.498	541.45
400.712	615.18
400.925	623.37
401.139	451.34
401.353	606.99
401.566	584.46
401.78	656.14
401.994	635.66
402.207	635.66
402.421	621.32
402.634	768.78
402.848	656.14
403.061	672.52
403.275	758.54
403.488	766.73
403.702	701.19
403.915	748.3
404.128	815.88
404.342	826.12
404.555	729.86
404.768	819.98
404.982	766.73
405.195	856.84
405.408	875.27
405.621	938.76
405.835	979.72
406.048	998.15
406.261	910.09
406.474	905.99
406.687	975.62
406.9	930.57
407.113	934.66
407.326	1000.2
407.539	987.91
407.752	1106.69
407.965	1047.3
408.178	1198.85
408.391	1159.94
408.604	1114.88
408.817	1168.13
409.029	1192.71
409.242	1159.94
409.455	1227.52
409.668	1331.97
409.881	1424.13
410.093	1348.35
410.306	1364.73
410.519	1340.16
410.731	1317.63
410.944	1374.97
411.157	1282.82
411.369	1487.61
411.582	1389.31
411.794	1600.25
412.007	1544.96
412.219	1487.61
412.432	1540.86
412.644	1651.45
412.857	1569.53
413.069	1639.16
413.281	1594.11
413.494	1551.1
413.706	1706.75
413.918	1663.74
414.131	1813.24
414.343	1731.32
414.555	1762.04
414.767	1807.1
414.979	1792.76
415.192	1768.18
415.404	2013.94
415.616	1831.67
415.828	1841.91
416.04	1907.45
416.252	1848.06
416.464	1852.15
416.676	1942.26
416.888	1927.93
417.1	1972.98
417.312	2052.85
417.524	1999.61
417.736	1987.32
417.948	2163.44
418.159	2091.76
418.371	2085.62
418.583	2075.38
418.795	2147.06
419.007	2325.23
419.218	2091.76
419.43	2069.24
419.642	2226.93
419.853	2306.8
420.065	2257.65
420.276	2310.9
420.488	2382.58
420.7	2372.34
420.911	2331.38
421.123	2380.53
421.334	2228.98
421.546	2437.87
421.757	2392.82
421.969	2364.14
422.18	2306.8
422.391	2308.85
422.603	2353.9
422.814	2448.11
423.025	2599.66
423.237	2437.87
423.448	2497.26
423.659	2611.95
423.87	2630.38
424.082	2697.96
424.293	2579.18
424.504	2611.95
424.715	2446.06
424.926	2577.13
425.137	2466.54
425.348	2712.3
425.559	2630.38
425.77	2781.93
425.981	2470.64
426.192	2708.2
426.403	2687.72
426.614	2695.91
426.825	2675.43
427.036	2603.76
427.247	2493.17
427.458	2749.16
427.668	2609.9
427.879	2740.97
428.09	2792.17
428.301	2847.46
428.511	2691.82
428.722	2614
428.933	2851.56
429.143	2620.14
429.354	2642.67
429.565	2956.01
429.775	2818.79
429.986	2822.89
430.196	2802.41
430.407	2843.37
430.617	2675.43
430.828	2693.87
431.038	2790.12
431.249	2779.88
431.459	2859.75
431.669	2636.52
431.88	2835.18
432.09	2794.22
432.3	2700.01
432.511	2831.08
432.721	2781.93
432.931	2884.33
433.141	2618.09
433.351	2646.76
433.562	2910.95
433.772	2929.38
433.982	2923.24
434.192	2691.82
434.402	2802.41
434.612	2822.89
434.822	2853.61
435.032	2740.97
435.242	2771.69
435.452	2863.85
435.662	2728.68
435.872	2820.84
436.082	2849.51
436.292	2695.91
436.502	2677.48
436.711	2831.08
436.921	2704.11
437.131	2896.62
437.341	2601.71
437.551	2888.42
437.76	2835.18
437.97	2781.93
438.18	2687.72
438.389	2622.19
438.599	2792.17
438.808	2812.65
439.018	2702.06
439.228	2812.65
439.437	2675.43
439.647	2718.44
439.856	2732.78
440.066	2632.43
440.275	2732.78
440.484	2781.93
440.694	2777.83
440.903	2745.07
441.113	2620.14
441.322	2734.83
441.531	2794.22
441.741	2806.5
441.95	2562.8
442.159	2857.7
442.368	2720.49
442.577	2669.29
442.787	2611.95
442.996	2808.55
443.205	2626.28
443.414	2808.55
443.623	2732.78
443.832	2659.05
444.041	2745.07
444.25	2728.68
444.459	2546.41
444.668	2640.62
444.877	2609.9
445.086	2587.37
445.295	2654.96
445.504	2667.24
445.713	2544.36
445.922	2675.43
446.13	2499.31
446.339	2527.98
446.548	2462.45
446.757	2484.97
446.965	2351.86
447.174	2644.72
447.383	2550.51
447.591	2560.75
447.8	2243.31
448.009	2544.36
448.217	2446.06
448.426	2509.55
448.634	2527.98
448.843	2489.07
449.051	2415.34
449.26	2589.42
449.468	2474.73
449.677	2454.25
449.885	2593.52
450.093	2478.83
450.302	2474.73
450.51	2495.21
450.719	2532.08
450.927	2482.93
451.135	2589.42
451.343	2466.54
451.552	2511.6
451.76	2351.86
451.968	2437.87
452.176	2474.73
452.384	2511.6
452.592	2511.6
452.8	2433.77
453.009	2560.75
453.217	2546.41
453.425	2519.79
453.633	2532.08
453.841	2540.27
454.049	2562.8
454.257	2527.98
454.464	2296.56
454.672	2542.32
454.88	2437.87
455.088	2501.36
455.296	2415.34
455.504	2452.21
455.711	2474.73
455.919	2589.42
456.127	2468.59
456.335	2622.19
456.542	2568.94
456.75	2462.45
456.958	2405.1
457.165	2665.2
457.373	2364.14
457.581	2560.75
457.788	2532.08
457.996	2464.49
458.203	2568.94
458.411	2638.57
458.618	2546.41
458.826	2405.1
459.033	2616.04
459.24	2614
459.448	2667.24
459.655	2609.9
459.863	2646.76
460.07	2761.45
460.277	2556.65
460.484	2679.53
460.692	2661.1
460.899	2573.04
461.106	2532.08
461.313	2757.35
461.52	2628.33
461.728	2710.25
461.935	2622.19
462.142	2779.88
462.349	2591.47
462.556	2700.01
462.763	2652.91
462.97	2700.01
463.177	2552.56
463.384	2781.93
463.591	2798.31
463.798	2718.44
464.005	2890.47
464.212	2691.82
464.418	2740.97
464.625	2816.74
464.832	2702.06
465.039	2769.64
465.246	2831.08
465.452	2925.29
465.659	2847.46
465.866	2908.9
466.072	2872.04
466.279	2941.67
466.486	2900.71
466.692	2816.74
466.899	2872.04
467.105	2996.97
467.312	2863.85
467.519	2849.51
467.725	2992.87
467.931	3181.28
468.138	2945.77
468.344	2986.73
468.551	2915.05
468.757	3142.37
468.964	3177.19
469.17	3146.47
469.376	3293.92
469.583	3244.77
469.789	3298.02
469.995	3240.67
470.201	3298.02
470.408	3293.92
470.614	3244.77
470.82	3398.37
471.026	3322.59
471.232	3169
471.438	3326.69
471.644	3371.74
471.85	3429.09
472.056	3398.37
472.262	3609.31
472.468	3535.58
472.674	3740.38
472.88	3670.75
473.086	3740.38
473.292	3760.86
473.498	3818.2
473.704	3830.49
473.91	3797.72
474.116	3846.87
474.321	3752.67
474.527	3695.32
474.733	3963.61
474.939	3887.83
475.144	3875.54
475.35	3928.79
475.556	4008.66
475.761	4141.78
475.967	4205.27
476.173	4217.56
476.378	4242.13
476.584	4195.03
476.789	4362.96
476.995	4262.61
477.2	4414.16
477.406	4561.61
477.611	4481.74
477.817	4467.41
478.022	4436.69
478.227	4727.5
478.433	4530.89
478.638	4633.29
478.843	4633.29
479.049	4707.02
479.254	4805.32
479.459	4743.88
479.664	4952.78
479.87	4944.58
480.075	4874.95
480.28	5001.93
480.485	4899.53
480.69	4969.16
480.895	5108.42
481.1	5077.7
481.306	5110.47
481.511	5235.4
481.716	5251.78
481.921	5444.29
482.126	5354.18
482.33	5577.41
482.535	5622.46
482.74	5495.49
482.945	5370.56
483.15	5581.5
483.355	5536.45
483.56	5591.74
483.765	5542.59
483.969	5671.61
484.174	5706.43
484.379	5868.22
484.583	5896.89
484.788	5845.69
484.993	5726.91
485.197	5847.74
485.402	5880.51
485.607	6046.39
485.811	5978.81
486.016	6099.64
486.22	6058.68
486.425	6085.3
486.629	6017.72
486.834	6050.49
487.038	6015.67
487.243	6165.17
487.447	6296.24
487.652	6603.44
487.856	6296.24
488.06	6611.63
488.265	6472.37
488.469	6482.61
488.673	6621.87
488.877	6619.82
489.082	6517.42
489.286	6572.72
489.49	6525.62
489.694	6781.61
489.898	6568.62
490.102	6722.22
490.307	6806.19
490.511	6922.92
490.715	6828.72
490.919	6898.35
491.123	6736.56
491.327	7008.94
491.531	6820.52
491.735	7201.45
491.939	7131.81
492.143	7144.1
492.346	7000.74
492.55	7082.66
492.754	7314.08
492.958	7154.34
493.162	7223.97
493.366	7439.01
493.569	7582.37
493.773	7525.02
493.977	7295.65
494.18	7434.91
494.384	7473.83
494.588	7496.35
494.791	7232.17
494.995	7635.62
495.199	7461.54
495.402	7594.66
495.606	7658.14
495.809	7862.94
496.013	7615.14
496.216	7672.48
496.42	7869.08
496.623	7805.6
496.827	8020.63
497.03	7930.52
497.233	8030.87
497.437	7987.87
497.64	8075.93
497.843	8307.35
498.047	8118.94
498.25	8352.4
498.453	8288.92
498.656	8311.44
498.86	8477.33
499.063	8512.15
499.266	8321.68
499.469	8602.26
499.672	8356.5
499.875	8422.04
500.078	8647.31
500.281	8553.11
500.484	8667.79
500.687	8508.05
500.89	8475.28
501.093	8802.96
501.296	8729.23
501.499	8788.62
501.702	8811.15
501.905	8997.51
502.108	8798.86
502.311	8993.42
502.514	8837.77
502.716	9255.56
502.919	9198.22
503.122	9255.56
503.325	9048.71
503.527	9210.5
503.73	9310.85
503.933	9329.29
504.135	9251.46
504.338	9392.77
504.541	9261.7
504.743	9454.21
504.946	9364.1
505.148	9613.95
505.351	9736.83
505.553	9820.8
505.756	9728.64
505.958	9755.26
506.161	9958.01
506.363	9966.2
506.565	9826.94
506.768	9896.57
506.97	10220.15
507.172	10316.41
507.375	10394.23
507.577	10283.64
507.779	10177.14
507.982	10711.66
508.184	10283.64
508.386	10621.55
508.588	10515.06
508.79	10680.94
508.993	10470
509.195	10949.23
509.397	10883.69
509.599	11000.43
509.801	10912.37
510.003	11211.37
510.205	11076.2
510.407	11141.74
510.609	11207.27
510.811	11162.22
511.013	11233.9
511.215	11364.97
511.417	11504.23
511.618	12001.88
511.82	11686.5
512.022	11694.69
512.224	11821.66
512.426	11854.43
512.627	11874.91
512.829	12266.07
513.031	12057.18
513.233	12657.23
513.434	12266.07
513.636	12417.62
513.838	12507.73
514.039	12315.22
514.241	12466.77
514.442	12804.69
514.644	12978.77
514.845	12857.94
515.047	13044.3
515.248	13417.03
515.45	13339.21
515.651	13572.68
515.853	13603.4
516.054	14025.28
516.256	13873.73
516.457	13922.88
516.658	13668.93
516.86	13951.55
517.061	14064.19
517.262	14049.85
517.463	14131.77
517.665	14670.39
517.866	14418.49
518.067	14516.79
518.268	14524.98
518.469	14801.46
518.67	14725.68
518.872	14842.42
519.073	14729.78
519.274	15297.07
519.475	14797.36
519.676	15239.72
519.877	15127.08
520.078	15440.42
520.279	15301.16
520.48	15768.1
520.681	15708.71
520.881	15712.8
521.082	15784.48
521.283	16036.38
521.484	16011.81
521.685	16003.62
521.886	15960.61
522.086	16232.99
522.287	16183.84
522.488	16538.14
522.689	16480.79
522.889	17019.41
523.09	16787.99
523.291	16796.18
523.491	16814.61
523.692	16947.73
523.892	16671.25
524.093	17005.07
524.294	17240.59
524.494	17680.9
524.695	17238.54
524.895	17924.61
525.096	17269.26
525.296	17455.63
525.496	17805.83
525.697	17811.97
525.897	17555.98
526.098	18070.02
526.298	17965.57
526.498	17914.37
526.699	18215.42
526.899	18375.16
527.099	18233.85
527.299	18424.31
527.499	18405.88
527.7	18602.49
527.9	18467.32
528.1	18645.5
528.3	18641.4
528.5	19001.84
528.7	18690.55
528.9	19069.42
529.1	18723.32
529.3	19372.52
529.5	18919.92
529.7	19339.76
529.9	18985.46
530.1	19366.38
530.3	19212.78
530.5	19173.87
530.7	19655.14
530.9	19526.12
531.1	19075.57
531.3	20013.54
531.499	19519.98
531.699	19984.87
531.899	20003.3
532.099	20185.57
532.298	20185.57
532.498	20320.73
532.698	20347.36
532.897	20341.21
533.097	20414.94
533.297	21035.47
533.496	20578.78
533.696	20992.47
533.895	20566.49
534.095	21205.46
534.294	20695.51
534.494	21119.44
534.693	20597.21
534.893	21443.02
535.092	21242.32
535.292	21543.37
535.491	21500.36
535.69	21719.5
535.89	21348.81
536.089	21561.8
536.288	21557.71
536.488	21916.1
536.687	22002.12
536.886	21821.89
537.085	22196.67
537.285	22208.96
537.484	21776.84
537.683	22407.61
537.882	21995.97
538.081	22860.21
538.28	22639.03
538.479	22256.06
538.678	22485.44
538.877	22909.37
539.076	22759.86
539.275	23120.31
539.474	22700.47
539.673	23300.53
539.872	22989.24
540.071	23519.66
540.27	23060.92
540.469	23507.37
540.668	23138.74
540.867	23841.19
541.065	23138.74
541.264	23931.3
541.463	23589.29
541.662	23876.01
541.861	23845.29
542.059	23796.14
542.258	24136.1
542.457	24551.84
542.655	24242.59
542.854	24089
543.052	24179.11
543.251	24725.91
543.45	24263.07
543.648	24523.17
543.847	24476.06
544.045	24627.61
544.244	24766.87
544.442	25145.75
544.641	24750.49
544.839	25393.55
545.037	25098.64
545.236	25203.09
545.434	25117.08
545.632	25348.5
545.831	25182.61
546.029	25553.29
546.227	25192.85
546.426	26053
546.624	25528.72
546.822	25868.68
547.02	26171.78
547.218	26704.25
547.417	25797
547.615	26413.44
547.813	26239.36
548.011	26386.82
548.209	26579.33
548.407	26612.09
548.605	26835.32
548.803	26931.58
549.001	26853.75
549.199	27543.92
549.397	26982.78
549.595	27533.68
549.793	27136.37
549.991	26878.33
550.189	26937.72
550.387	27478.38
550.584	27449.71
550.782	27292.02
550.98	27126.13
551.178	27711.85
551.376	27748.72
551.573	28301.67
551.771	28082.54
551.969	28248.42
552.166	27781.48
552.364	28100.97
552.562	28031.34
552.759	28072.3
552.957	27890.03
553.154	27935.08
553.352	28318.05
553.55	28844.38
553.747	28143.97
553.945	28719.45
554.142	28905.82
554.339	29237.59
554.537	29237.59
554.734	29708.62
554.932	29266.26
555.129	28901.72
555.326	29528.4
555.524	29712.72
555.721	29843.79
555.918	29802.83
556.116	29634.9
556.313	29737.29
556.51	29598.03
556.707	29894.99
556.904	29991.24
557.102	30509.38
557.299	30234.95
557.496	30568.77
557.693	30349.64
557.89	30972.22
558.087	30406.98
558.284	30830.91
558.481	30304.58
558.678	30730.56
558.875	31050.04
559.072	30761.28
559.269	30837.05
559.466	31009.08
559.663	30642.5
559.86	30959.93
560.057	30652.74
560.254	31142.2
560.45	31469.88
560.647	32006.44
560.844	31377.72
561.041	31533.36
561.237	31807.79
561.434	32344.36
561.631	31881.52
561.828	32846.11
562.024	32080.17
562.221	32575.78
562.418	32403.75
562.614	32481.57
562.811	33083.67
563.007	33464.6
563.204	32407.85
563.4	32827.68
563.597	33141.02
563.793	32966.94
563.99	33218.84
564.186	33188.12
564.383	33077.53
564.579	33546.52
564.775	33233.18
564.972	33521.94
565.168	33628.43
565.365	33667.35
565.561	33106.2
565.757	33521.94
565.953	33245.46
566.15	33593.62
566.346	33374.49
566.542	33906.96
566.738	33218.84
566.934	33866
567.131	33657.11
567.327	33720.59
567.523	33278.23
567.719	33917.2
567.915	33370.39
568.111	33417.49
568.307	33149.21
568.503	34367.75
568.699	34201.87
568.895	34007.31
569.091	34210.06
569.287	34421
569.483	34676.99
569.679	34205.96
569.875	34652.42
570.07	34517.25
570.266	34531.59
570.462	35131.64
570.658	34445.57
570.854	34687.23
571.049	34810.11
571.245	35244.28
571.441	34914.56
571.636	35498.23
571.832	35016.96
572.028	35807.47
572.223	35692.79
572.419	36260.07
572.615	35342.58
572.81	36169.96
573.006	35660.02
573.201	36153.58
573.397	36399.34
573.592	36350.19
573.788	35924.21
573.983	36348.14
574.179	36096.24
574.374	35940.59
574.569	35922.16
574.765	36303.08
574.96	35475.7
575.156	36012.27
575.351	35873.01
575.546	36307.18
575.741	36387.05
575.937	36774.11
576.132	36090.09
576.327	36317.42
576.522	36055.28
576.718	36120.81
576.913	36479.21
577.108	36884.7
577.303	36554.98
577.498	36995.3
577.693	36853.99
577.888	36679.91
578.083	36622.56
578.278	36808.93
578.473	36255.98
578.668	36954.34
578.863	36806.88
579.058	36806.88
579.253	36524.26
579.448	37310.68
579.643	36989.15
579.838	38105.29
580.033	37822.67
580.227	37851.35
580.422	36735.2
580.617	37988.56
580.812	37511.38
581.006	37458.14
581.201	37509.34
581.396	37916.88
581.591	37474.52
581.785	37308.63
581.98	36964.58
582.175	38039.76
582.369	38224.08
582.564	38451.4
582.758	38932.67
582.953	38734.02
583.147	38295.76
583.342	38705.35
583.536	38095.05
583.731	39256.25
583.925	38584.52
584.12	39225.53
584.314	38297.8
584.509	38901.95
584.703	38693.06
584.897	38987.97
585.092	38850.75
585.286	38928.58
585.48	38860.99
585.674	38318.28
585.869	38858.95
586.063	39073.98
586.257	38631.62
586.451	39020.74
586.646	38613.19
586.84	38926.53
587.034	38596.81
587.228	39254.2
587.422	38930.63
587.616	39516.34
587.81	39747.77
588.004	39860.4
588.198	38789.32
588.392	39289.02
588.586	38656.2
588.78	39366.84
588.974	38975.68
589.168	39676.09
589.362	39069.89
589.556	39258.3
589.75	39219.39
589.944	39569.59
590.137	39184.57
590.331	39420.09
590.525	39217.34
590.719	40323.24
590.913	39452.86
591.106	40081.58
591.3	39866.55
591.494	40298.67
591.687	39518.39
591.881	39712.95
592.075	39573.69
592.268	40034.48
592.462	39950.51
592.655	39762.1
592.849	39616.7
593.043	40333.48
593.236	40407.21
593.43	40270
593.623	40788.13
593.817	41230.49
594.01	40491.18
594.203	41162.91
594.397	40249.52
594.59	41459.87
594.784	40214.7
594.977	40607.91
595.17	40874.15
595.364	40968.35
595.557	40898.72
595.75	41572.51
595.943	41048.23
596.137	41416.86
596.33	40726.69
596.523	41711.77
596.716	41416.86
596.909	41805.97
597.102	41089.18
597.296	41822.36
597.489	41296.03
597.682	41810.07
597.875	41564.31
598.068	41222.3
598.261	41107.62
598.454	41650.33
598.647	40980.64
598.84	42328.21
599.033	41711.77
599.226	42453.13
599.419	41554.07
599.611	41697.43
599.804	41289.89
599.997	41185.44
600.19	41439.39
600.383	41691.29
600.576	41695.38
600.768	41529.5
600.961	40984.74
601.154	41814.17
601.347	41404.57
601.539	41635.99
601.732	42107.03
601.925	41846.93
602.117	41433.24
602.31	42453.13
602.502	41699.48
602.695	42373.26
602.888	42418.32
603.08	42289.29
603.273	42854.53
603.465	42612.87
603.658	42510.48
603.85	42598.54
604.043	42528.91
604.235	42924.16
604.427	43049.09
604.62	42950.79
604.812	42797.19
605.004	42608.78
605.197	41822.36
605.389	42336.4
605.581	42221.71
605.774	42354.83
605.966	42154.13
606.158	42625.16
606.35	41371.8
606.543	42000.53
606.735	42854.53
606.927	42584.2
607.119	42956.93
607.311	43548.8
607.503	43042.95
607.695	43192.45
607.887	42453.13
608.079	43651.19
608.271	42989.7
608.463	43677.82
608.655	43217.02
608.847	43337.85
609.039	43624.57
609.231	43042.95
609.423	43065.47
609.615	43632.76
609.807	42846.34
609.999	43446.4
610.191	43364.48
610.382	43198.59
610.574	43210.88
610.766	43841.65
610.958	43282.56
611.15	43382.91
611.341	42958.98
611.533	43528.32
611.725	42967.17
611.916	43497.6
612.108	42442.89
612.3	42651.78
612.491	43518.08
612.683	43608.19
612.874	42877.06
613.066	43882.61
613.257	42856.58
613.449	43944.05
613.64	43296.9
613.832	43075.71
614.023	43458.68
614.215	43774.07
614.406	43925.62
614.598	43696.25
614.789	43391.1
614.98	43985.01
615.172	43073.67
615.363	43550.84
615.554	43161.73
615.746	44054.64
615.937	43548.8
616.128	43313.28
616.319	42987.65
616.511	43169.92
616.702	43061.38
616.893	43391.1
617.084	43423.87
617.275	44124.27
617.466	43507.84
617.658	43993.2
617.849	43810.94
618.04	43714.68
618.231	43894.9
618.422	44169.33
618.613	44300.4
618.804	43427.97
618.995	43587.71
619.186	44337.26
619.377	43880.57
619.568	44003.44
619.758	43853.94
619.949	44494.96
620.14	43819.13
620.331	44886.12
620.522	44832.87
620.713	45410.4
620.903	44957.8
621.094	45125.73
621.285	44623.98
621.476	45434.97
621.666	44771.43
621.857	45516.89
622.048	45258.85
622.238	45516.89
622.429	46014.55
622.62	46430.29
622.81	46297.17
623.001	46823.5
623.191	46127.19
623.382	46948.42
623.572	46856.26
623.763	47317.06
623.953	46411.86
624.144	48029.75
624.334	47284.29
624.525	47867.96
624.715	46731.34
624.905	47816.76
625.096	47362.11
625.286	47870.01
625.477	47968.31
625.667	48830.51
625.857	48244.79
626.047	48941.1
626.238	48062.52
626.428	48947.24
626.618	48138.29
626.808	49780.76
626.999	48799.79
627.189	49666.08
627.379	49791
627.569	49621.02
627.759	49686.56
627.949	50290.71
628.139	49473.57
628.329	49678.37
628.519	49322.02
628.709	50100.25
628.899	49754.14
629.089	50907.15
629.279	49512.48
629.469	50448.4
629.659	50014.23
629.849	50360.34
630.039	49874.97
630.229	50442.26
630.419	49375.27
630.609	50128.92
630.798	50036.76
630.988	50477.07
631.178	50468.88
631.368	50638.86
631.557	50759.69
631.747	51197.96
631.937	50233.37
632.127	50706.45
632.316	49559.58
632.506	50718.73
632.696	50475.03
632.885	50841.61
633.075	50227.22
633.264	50040.86
633.454	49539.1
633.643	50413.59
633.833	50403.35
634.022	51089.42
634.212	50266.13
634.401	51038.22
634.591	50763.79
634.78	51519.49
634.97	50489.36
635.159	51251.21
635.348	50429.97
635.538	50808.84
635.727	50249.75
635.916	50161.69
636.106	49997.85
636.295	49723.42
636.484	48986.15
636.674	49659.93
636.863	49297.44
637.052	50219.03
637.241	50137.11
637.43	50833.42
637.619	50090.01
637.809	51095.56
637.998	50702.35
638.187	49946.65
638.376	49864.73
638.565	49907.74
638.754	49719.33
638.943	49530.91
639.132	49616.93
639.321	50219.03
639.51	49080.36
639.699	49457.19
639.888	49252.39
640.077	49733.66
640.266	49494.05
640.455	49457.19
640.643	49061.93
640.832	49758.24
641.021	49059.88
641.21	49367.07
641.399	48672.81
641.587	49584.16
641.776	49250.34
641.965	49684.51
642.154	49512.48
642.342	49225.76
642.531	48046.13
642.72	48842.79
642.908	48119.86
643.097	48814.12
643.286	48261.17
643.474	49018.92
643.663	48609.33
643.851	48955.43
644.04	48230.45
644.228	48240.69
644.417	48218.16
644.605	48740.4
644.794	48212.02
644.982	48693.29
645.171	48052.28
645.359	48568.37
645.547	48185.4
645.736	48285.75
645.924	48015.42
646.112	48480.3
646.301	48379.95
646.489	48078.9
646.677	47945.78
646.866	48758.83
647.054	48023.61
647.242	48398.39
647.43	47540.29
647.618	49068.07
647.807	48633.9
647.995	48513.07
648.183	47910.97
648.371	48457.78
648.559	47216.71
648.747	48513.07
648.935	47984.7
649.123	47728.7
649.311	47175.75
649.499	47982.65
649.687	47790.14
649.875	48216.12
650.063	47718.46
650.251	47917.11
650.439	47724.6
650.627	48275.51
650.815	47990.84
651.003	48293.94
651.191	47464.51
651.378	47466.56
651.566	46450.77
651.754	47695.93
651.942	47458.37
652.13	47331.39
652.317	46968.9
652.505	47761.47
652.693	47370.3
652.88	47710.27
653.068	47571.01
653.256	47413.31
653.443	47753.28
653.631	47310.91
653.819	47247.43
654.006	48027.7
654.194	47038.53
654.381	47988.79
654.569	47253.57
654.756	47775.8
654.944	46487.63
655.131	47327.3
655.319	46663.76
655.506	47016.01
655.693	46749.77
655.881	47870.01
656.068	47237.19
656.256	47618.11
656.443	48146.49
656.63	48259.12
656.818	47589.44
657.005	48295.99
657.192	47577.15
657.379	48205.88
657.567	47286.34
657.754	48816.17
657.941	48226.36
658.128	47564.86
658.315	47237.19
658.502	47704.12
658.69	46886.98
658.877	47650.88
659.064	46487.63
659.251	47652.92
659.438	47417.41
659.625	47929.4
659.812	47874.11
659.999	48549.93
660.186	47915.06
660.373	48488.5
660.56	47566.91
660.747	46997.57
660.934	46786.63
661.121	47370.3
661.308	46727.24
661.494	46784.59
661.681	47667.26
661.868	47007.81
662.055	46088.28
662.242	47185.99
662.428	47128.64
662.615	47241.28
662.802	46991.43
662.989	47654.97
663.175	47472.7
663.362	47216.71
663.549	47106.12
663.735	47480.9
663.922	47294.53
664.109	47431.74
664.295	47038.53
664.482	47120.45
664.668	46710.86
664.855	47753.28
665.041	46487.63
665.228	47310.91
665.414	46420.05
665.601	46501.97
665.787	46205.01
665.974	46526.54
666.16	46063.7
666.347	46901.32
666.533	46317.65
666.719	47202.37
666.906	46633.04
667.092	46835.79
667.278	46211.15
667.465	46471.25
667.651	45725.79
667.837	46848.07
668.023	46467.15
668.21	46917.7
668.396	46565.45
668.582	47427.65
668.768	46221.39
668.954	46878.79
669.14	45928.53
669.327	46032.98
669.513	45860.95
669.699	46313.55
669.885	45852.76
670.071	47030.34
670.257	46950.47
670.443	46587.98
670.629	46194.77
670.815	46368.85
671.001	45934.68
671.187	46276.69
671.373	45611.1
671.559	45877.34
671.744	45303.9
671.93	45944.92
672.116	46114.9
672.302	45883.48
672.488	45373.54
672.674	46342.22
672.859	45572.19
673.045	46434.38
673.231	45621.34
673.417	46194.77
673.602	46364.75
673.788	46374.99
673.974	46440.53
674.159	46194.77
674.345	46129.24
674.531	45965.4
674.716	45598.81
674.902	45967.45
675.087	44775.53
675.273	45973.59
675.459	45447.26
675.644	46004.31
675.83	45512.8
676.015	46137.43
676.2	45695.07
676.386	46233.68
676.571	45564
676.757	46450.77
676.942	45877.34
677.128	47237.19
677.313	46805.07
677.498	47347.78
677.684	46553.17
677.869	46540.88
678.054	46196.82
678.24	46127.19
678.425	45523.04
678.61	45394.02
678.795	44965.99
678.98	45664.35
679.166	44822.63
679.351	45336.67
679.536	44814.44
679.721	45582.43
679.906	44771.43
680.091	45443.17
680.276	45508.7
680.461	45635.68
680.647	44978.28
680.832	46700.62
681.017	45494.37
681.202	45434.97
681.387	45183.07
681.572	45914.2
681.756	45310.05
681.941	45578.33
682.126	45041.76
682.311	45189.22
682.496	44763.24
682.681	44800.1
682.866	45070.44
683.051	44734.57
683.235	44130.42
683.42	44783.72
683.605	44851.3
683.79	45021.28
683.974	44589.16
684.159	45525.09
684.344	45531.23
684.529	45322.34
684.713	44226.67
684.898	44908.65
685.083	44222.58
685.267	44277.87
685.452	44443.76
685.636	43909.24
685.821	43729.02
686.005	43792.5
686.19	43387.01
686.375	43546.75
686.559	43481.21
686.744	44128.37
686.928	43272.32
687.112	44468.33
687.297	43942.01
687.481	44550.25
687.666	44388.46
687.85	45484.13
688.034	44836.97
688.219	45346.91
688.403	44935.27
688.587	45353.06
688.772	44466.29
688.956	44914.79
689.14	44347.5
689.324	45105.25
689.509	44365.93
689.693	44939.37
689.877	44537.96
690.061	44865.64
690.245	44275.82
690.43	44497
690.614	44382.32
690.798	44314.74
690.982	44216.43
691.166	44828.78
691.35	44175.47
691.534	44728.43
691.718	43827.32
691.902	44734.57
692.086	43597.95
692.27	43915.38
692.454	43116.67
692.638	43694.2
692.822	43647.1
693.006	43862.13
693.19	43186.3
693.373	43794.55
693.557	43485.31
693.741	43888.76
693.925	43210.88
694.109	43573.37
694.293	43120.77
694.476	43335.81
694.66	42850.44
694.844	43118.72
695.027	42547.34
695.211	43503.74
695.395	42770.57
695.578	43257.98
695.762	42168.46
695.946	43040.9
696.129	42305.68
696.313	42604.68
696.497	42051.73
696.68	42879.11
696.864	42004.63
697.047	42311.82
697.231	41418.91
697.414	41975.96
697.598	41885.84
697.781	42203.28
697.965	41832.6
698.148	42199.18
698.331	41154.72
698.515	42260.62
698.698	41267.36
698.881	42559.63
699.065	41349.28
699.248	42113.17
699.431	41535.64
699.615	42377.36
699.798	41740.44
699.981	42186.9
700.165	41478.3
700.348	42143.89
700.531	40673.45
700.714	41887.89
700.897	40464.55
701.08	41191.58
701.264	40761.51
701.447	40698.02
701.63	40765.61
701.813	41367.71
701.996	40548.52
702.179	41592.99
702.362	40870.05
702.545	41083.04
702.728	41580.7
702.911	41935
703.094	40976.55
703.277	42021.01
703.46	40501.42
703.643	40818.85
703.826	40206.51
704.009	41287.84
704.191	40116.4
704.374	40204.46
704.557	39698.61
704.74	40136.88
704.923	39833.78
705.106	39837.88
705.288	39846.07
705.471	39766.2
705.654	40040.62
705.837	39876.79
706.019	39860.4
706.202	39981.23
706.385	40046.77
706.567	40337.58
706.75	40224.94
706.932	40241.33
707.115	39395.51
707.298	39155.9
707.48	38430.92
707.663	38191.31
707.845	37701.84
708.028	38428.87
708.21	37929.17
708.393	38211.79
708.575	37636.31
708.758	38287.56
708.94	37656.79
709.123	37865.68
709.305	37470.42
709.487	38412.49
709.67	37662.93
709.852	38086.86
710.034	38277.32
710.217	38664.39
710.399	38545.61
710.581	38467.78
710.764	37931.22
710.946	37910.74
711.128	36841.7
711.31	37552.34
711.492	37091.55
711.675	37451.99
711.857	37294.3
712.039	37226.72
712.221	36983.01
712.403	37478.62
712.585	37030.11
712.767	37357.79
712.949	36329.71
713.131	36741.35
713.314	36339.95
713.496	36520.17
713.678	36266.22
713.86	36710.63
714.041	36563.17
714.223	37447.9
714.405	36958.43
714.587	36931.81
714.769	36341.99
714.951	37015.77
715.133	35987.69
715.315	36505.83
715.497	35854.58
715.678	36364.52
715.86	36153.58
716.042	36792.55
716.224	35864.82
716.406	36655.33
716.587	36075.76
716.769	35764.47
716.951	35864.82
717.132	35774.71
717.314	35211.51
717.496	35635.44
717.677	35440.89
717.859	35780.85
718.041	35250.43
718.222	35913.97
718.404	35100.92
718.585	35756.27
718.767	34435.33
718.948	35059.96
719.13	34603.27
719.311	34574.6
719.493	34578.69
719.674	34527.49
719.856	34113.8
720.037	34392.33
720.219	33902.86
720.4	34128.14
720.581	34277.64
720.763	34605.32
720.944	34040.08
721.125	34220.3
721.307	33886.48
721.488	34027.79
721.669	34095.37
721.85	34031.88
722.032	33579.28
722.213	33579.28
722.394	33358.1
722.575	33906.96
722.756	33454.36
722.938	33480.98
723.119	32651.55
723.3	32280.87
723.481	32051.5
723.662	32870.69
723.843	31920.43
724.024	32454.95
724.205	32182.57
724.386	32551.2
724.567	32035.11
724.748	32608.55
724.929	32112.94
725.11	32925.98
725.291	32461.09
725.472	33012
725.653	32835.87
725.834	32874.78
726.015	32057.64
726.196	32227.62
726.377	31525.17
726.557	31672.62
726.738	30863.68
726.919	31207.74
727.1	31117.62
727.281	30689.6
727.461	30611.78
727.642	30153.03
727.823	30028.11
728.004	30480.71
728.184	29761.87
728.365	30581.06
728.546	29725.01
728.726	30320.97
728.907	29966.67
729.087	30734.65
729.268	30380.36
729.449	30652.74
729.629	29894.99
729.81	30200.13
729.99	30050.63
730.171	30255.43
730.351	29976.91
730.532	30013.77
730.712	29659.47
730.893	29432.15
731.073	29237.59
731.253	29401.43
731.434	29104.47
731.614	29075.8
731.795	28576.1
731.975	28965.21
732.155	28660.06
732.336	28881.24
732.516	28393.83
732.696	28938.59
732.876	28844.38
733.057	29065.56
733.237	28309.86
733.417	28985.69
733.597	28039.53
733.778	28569.95
733.958	28289.38
734.138	28205.41
734.318	27904.36
734.498	27822.44
734.678	27445.62
734.858	27558.26
735.038	27074.93
735.218	27502.96
735.398	27091.32
735.579	26933.62
735.759	27130.23
735.939	27107.7
736.119	26413.44
736.298	27087.22
736.478	26374.53
736.658	26288.51
736.838	26519.94
737.018	26317.19
737.198	25952.65
737.378	26304.9
737.558	26151.3
737.738	26089.86
737.917	25706.89
738.097	26063.24
738.277	25442.7
738.457	25694.6
738.637	25209.24
738.816	25299.35
738.996	25090.45
739.176	25342.35
739.355	25090.45
739.535	25522.57
739.715	24588.7
739.894	25303.44
740.074	24834.46
740.254	25002.39
740.433	24603.04
740.613	25282.96
740.792	24789.4
740.972	24519.07
741.151	24175.01
741.331	24932.76
741.51	24531.36
741.69	24687
741.869	24324.51
742.049	24396.19
742.228	23980.45
742.408	23822.76
742.587	23878.06
742.766	23876.01
742.946	23490.99
743.125	23765.42
743.305	23368.11
743.484	23620.01
743.663	22737.34
743.842	23169.46
744.022	22794.68
744.201	23148.98
744.38	22655.42
744.56	23034.29
744.739	22690.23
744.918	22837.69
745.097	22690.23
745.276	22970.81
745.455	22315.46
745.635	22407.61
745.814	22182.34
745.993	22389.18
746.172	22086.08
746.351	22639.03
746.53	22546.88
746.709	22319.55
746.888	22417.85
747.067	22430.14
747.246	22172.1
747.425	22057.41
747.604	21879.24
747.783	21846.47
747.962	22075.84
748.141	22088.13
748.32	21795.27
748.499	22419.9
748.677	21897.67
748.856	22763.96
749.035	22221.25
749.214	22489.53
749.393	22589.88
749.572	22356.41
749.75	22204.86
749.929	22684.09
750.108	21969.35
750.287	22692.28
750.465	22288.83
750.644	22489.53
750.823	22395.33
751.001	22323.65
751.18	22278.59
751.359	22741.43
751.537	22272.45
751.716	22596.03
751.894	22190.53
752.073	22264.26
752.251	21713.35
752.43	21989.83
752.609	21809.61
752.787	22059.46
752.966	21631.43
753.144	21950.92
753.322	21918.15
753.501	21832.13
753.679	21811.65
753.858	22034.88
754.036	21668.3
754.215	22096.32
754.393	21971.4
754.571	21934.53
754.75	21742.02
754.928	22165.95
755.106	21993.92
755.284	21973.44
755.463	21344.72
755.641	21762.5
755.819	21696.97
755.997	21637.58
756.176	21135.83
756.354	21780.94
756.532	21150.16
756.71	21600.71
756.888	21090.77
757.066	21270.99
757.245	21004.76
757.423	21447.12
757.601	20984.28
757.779	21285.33
757.957	21178.83
758.135	21268.94
758.313	21176.78
758.491	21074.39
758.669	20681.18
758.847	20820.44
759.025	20470.24
759.203	20629.98
759.381	20163.04
759.559	20609.5
759.737	20242.91
759.915	20509.15
760.092	20197.86
760.27	20488.67
760.448	20105.7
760.626	20287.97
760.804	19612.14
760.981	20066.79
761.159	19567.08
761.337	19872.23
761.515	19331.56
761.692	19472.87
761.87	19612.14
762.048	19440.11
762.226	19298.8
762.403	19874.28
762.581	19263.98
762.759	19517.93
762.936	19149.3
763.114	19040.75
763.291	18778.61
763.469	18600.44
763.647	18274.81
763.824	18078.21
764.002	18203.13
764.179	18297.34
764.357	17947.14
764.534	17779.2
764.712	17426.95
764.889	17582.6
765.066	17228.3
765.244	17093.13
765.421	16880.15
765.599	16835.09
765.776	16824.85
765.953	16683.54
766.131	16413.21
766.308	16437.78
766.485	16501.27
766.663	16474.65
766.84	16187.93
767.017	16564.76
767.194	16212.51
767.372	16169.5
767.549	15821.35
767.726	15944.22
767.903	15516.2
768.081	15581.73
768.258	14959.15
768.435	15249.96
768.612	14746.16
768.789	15000.11
768.966	14795.31
769.143	14717.49
769.32	14332.47
769.497	14332.47
769.674	14268.99
769.851	14234.17
770.028	14121.53
770.205	13830.72
770.382	13845.06
770.559	13914.69
770.736	13482.57
770.913	13619.78
771.09	13273.67
771.267	13361.74
771.444	13234.76
771.621	13238.86
771.798	12851.79
771.975	12898.89
772.151	12483.16
772.328	12427.86
772.505	12167.77
772.682	12130.91
772.859	11907.68
773.035	11858.53
773.212	11631.2
773.389	11866.72
773.565	11348.58
773.742	11223.66
773.919	10986.09
774.096	10762.86
774.272	10963.56
774.449	10707.57
774.625	10695.28
774.802	10691.18
774.979	10500.72
775.155	10461.81
775.332	10371.7
775.508	10590.83
775.685	10214.01
775.861	10189.43
776.038	9968.25
776.214	10017.4
776.391	9921.15
776.567	9865.85
776.744	9400.96
776.92	9798.27
777.096	9372.29
777.273	9441.92
777.449	9247.37
777.626	9482.88
777.802	8934.03
777.978	9024.14
778.155	8950.41
778.331	8786.57
778.507	8872.59
778.683	8659.6
778.86	8675.98
779.036	8581.78
779.212	8413.84
779.388	8385.17
779.565	8288.92
779.741	8278.68
779.917	7930.52
780.093	7928.47
780.269	7961.24
780.445	7742.11
780.621	7840.41
780.797	7703.2
780.974	7619.23
781.15	7430.82
781.326	7525.02
781.502	7500.45
781.678	7537.31
781.854	7361.19
782.03	7217.83
782.206	7295.65
782.382	7119.53
782.558	6943.4
782.733	6853.29
782.909	7094.95
783.085	6861.48
783.261	6861.48
783.437	6707.89
783.613	6963.88
783.789	6664.88
783.965	6664.88
784.14	6806.19
784.316	6677.17
784.492	6419.12
784.668	6503.09
784.843	6353.59
785.019	6404.79
785.195	6361.78
785.371	6439.6
785.546	6179.51
785.722	6290.1
785.898	6181.56
786.073	6044.34
786.249	5993.14
786.424	5796.54
786.6	5673.66
786.776	5718.72
786.951	5522.11
787.127	5571.26
787.302	5403.33
787.478	5415.62
787.653	5452.48
787.829	5264.07
788.004	5354.18
788.18	5046.98
788.355	5272.26
788.531	5325.51
788.706	5141.19
788.881	5092.04
789.057	4872.91
789.232	4817.61
789.408	4790.99
789.583	4838.09
789.758	4754.12
789.934	4752.08
790.109	4686.54
790.284	4737.74
790.459	4477.65
790.635	4518.61
790.81	4387.54
790.985	4502.22
791.16	4307.67
791.336	4446.93
791.511	4199.12
791.686	4346.58
791.861	4242.13
792.036	4160.21
792.211	4252.37
792.387	4207.32
792.562	4002.52
792.737	4070.1
792.912	4109.01
793.087	3969.75
793.262	4023
793.437	3881.69
793.612	3838.68
793.787	3984.09
793.962	3848.92
794.137	3775.19
794.312	3723.99
794.487	3848.92
794.662	3703.52
794.837	3793.63
795.011	3756.76
795.186	3629.79
795.361	3543.77
795.536	3576.54
795.711	3554.01
795.886	3527.39
796.06	3517.15
796.235	3523.29
796.41	3416.8
796.585	3406.56
796.76	3355.36
796.934	3388.13
797.109	3324.64
797.284	3257.06
797.458	3359.46
797.633	3273.44
797.808	3109.6
797.982	3150.56
798.157	3093.22
798.332	3162.85
798.506	3074.79
798.681	3101.41
798.855	2972.39
799.03	3060.45
799.204	3123.94
799.379	3101.41
799.553	2915.05
799.728	3001.06
799.902	2999.01
800.077	3044.07
800.251	3035.88
800.426	2982.63
800.6	2888.42
800.775	2904.81
800.949	2906.86
801.123	2839.27
801.298	2710.25
801.472	2720.49
801.647	2661.1
801.821	2792.17
801.995	2790.12
802.169	2697.96
802.344	2642.67
802.518	2798.31
802.692	2687.72
802.867	2738.92
803.041	2691.82
803.215	2669.29
803.389	2743.02
803.563	2691.82
803.737	2732.78
803.912	2474.73
804.086	2562.8
804.26	2573.04
804.434	2546.41
804.608	2513.65
804.782	2503.41
804.956	2599.66
805.13	2566.89
805.304	2489.07
805.478	2564.84
805.652	2454.25
805.826	2525.93
806	2503.41
806.174	2372.34
806.348	2358
806.522	2302.7
806.696	2308.85
806.87	2347.76
807.044	2302.7
807.218	2353.9
807.392	2470.64
807.566	2349.81
807.739	2382.58
807.913	2413.29
808.087	2321.14
808.261	2337.52
808.435	2386.67
808.608	2333.42
808.782	2374.38
808.956	2341.62
809.13	2265.84
809.303	2364.14
809.477	2317.04
809.651	2341.62
809.824	2323.18
809.998	2267.89
810.172	2288.37
810.345	2241.27
810.519	2298.61
810.692	2274.03
810.866	2317.04
811.04	2351.86
811.213	2298.61
811.387	2347.76
811.56	2290.42
811.734	2261.75
811.907	2323.18
812.081	2290.42
812.254	2294.51
812.428	2278.13
812.601	2282.22
812.774	2433.77
812.948	2300.66
813.121	2286.32
813.295	2257.65
813.468	2376.43
813.641	2265.84
813.815	2306.8
813.988	2220.79
814.161	2298.61
814.335	2355.95
814.508	2265.84
814.681	2249.46
814.854	2224.88
815.028	2339.57
815.201	2233.07
815.374	2179.83
815.547	2210.55
815.72	2245.36
815.894	2130.68
816.067	2198.26
816.24	2228.98
816.413	2192.11
816.586	2253.55
816.759	2210.55
816.932	2265.84
817.105	2210.55
817.278	2185.97
817.452	2130.68
817.625	2257.65
817.798	2222.83
817.971	2245.36
818.144	2169.59
818.317	2151.15
818.49	2267.89
818.662	2124.53
818.835	2247.41
819.008	2147.06
819.181	2255.6
819.354	2118.39
819.527	2124.53
819.7	2161.39
819.873	2224.88
820.046	2185.97
820.218	2134.77
820.391	2052.85
820.564	2167.54
820.737	2185.97
820.909	2280.18
821.082	2192.11
821.255	2177.78
821.428	2224.88
821.6	2056.95
821.773	2237.17
821.946	2196.21
822.118	1981.17
822.291	2054.9
822.464	2153.2
822.636	2106.1
822.809	2220.79
822.982	2239.22
823.154	2044.66
823.327	2208.5
823.499	2188.02
823.672	2038.52
823.844	2034.42
824.017	2192.11
824.189	2034.42
824.362	2212.59
824.534	2104.05
824.707	2077.43
824.879	2118.39
825.052	2282.22
825.224	2142.96
825.396	2102
825.569	2136.82
825.741	2171.63
825.914	2065.14
826.086	2116.34
826.258	2145.01
826.431	2075.38
826.603	2093.81
826.775	2110.2
826.947	2130.68
827.12	2114.29
827.292	2122.48
827.464	2005.75
827.636	2085.62
827.809	2106.1
827.981	1989.37
828.153	2077.43
828.325	1987.32
828.497	2038.52
828.669	2030.32
828.842	2126.58
829.014	2104.05
829.186	1899.25
829.358	2085.62
829.53	2075.38
829.702	2007.8
829.874	1995.51
830.046	1970.93
830.218	2020.08
830.39	2085.62
830.562	1932.02
830.734	1950.45
830.906	2028.28
831.078	1932.02
831.25	1995.51
831.422	1921.78
831.594	1905.4
831.766	1987.32
831.937	2003.7
832.109	2022.13
832.281	1915.64
832.453	1934.07
832.625	1962.74
832.797	1790.71
832.968	1925.88
833.14	1858.3
833.312	1934.07
833.484	1831.67
833.655	1903.35
833.827	1997.56
833.999	1768.18
834.171	1848.06
834.342	1827.58
834.514	1880.82
834.686	1864.44
834.857	1725.18
835.029	1921.78
835.2	1856.25
835.372	1866.49
835.544	1856.25
835.715	1850.1
835.887	1831.67
836.058	1815.29
836.23	1874.68
836.401	1860.34
836.573	1874.68
836.744	1860.34
836.916	1784.57
837.087	1856.25
837.259	1823.48
837.43	1821.43
837.602	1757.94
837.773	1835.77
837.945	1909.49
838.116	1809.14
838.287	1807.1
838.459	1803
838.63	1872.63
838.801	1710.84
838.973	1803
839.144	1774.33
839.315	1696.51
839.487	1702.65
839.658	1798.9
839.829	1882.87
840	1755.9
840.172	1817.34
840.343	1778.42
840.514	1725.18
840.685	1700.6
840.856	1753.85
841.027	1741.56
841.199	1821.43
841.37	1800.95
841.541	1725.18
841.712	1667.83
841.883	1676.03
842.054	1719.03
842.225	1673.98
842.396	1676.03
842.567	1610.49
842.738	1630.97
842.909	1626.87
843.08	1649.4
843.251	1610.49
843.422	1590.01
843.593	1536.76
843.764	1635.07
843.935	1569.53
844.106	1561.34
844.277	1628.92
844.448	1581.82
844.619	1610.49
844.79	1610.49
844.96	1506.04
845.131	1653.5
845.302	1590.01
845.473	1485.57
845.644	1544.96
845.814	1649.4
845.985	1553.15
846.156	1483.52
846.327	1467.13
846.497	1483.52
846.668	1538.81
846.839	1454.85
847.01	1532.67
847.18	1393.41
847.351	1463.04
847.522	1366.78
847.692	1405.69
847.863	1428.22
848.033	1381.12
848.204	1389.31
848.375	1393.41
848.545	1350.4
848.716	1348.35
848.886	1276.67
849.057	1368.83
849.227	1286.91
849.398	1270.53
849.568	1411.84
849.739	1260.29
849.909	1282.82
850.08	1319.68
850.25	1262.34
850.421	1360.64
850.591	1268.48
850.761	1209.09
850.932	1348.35
851.102	1323.78
851.272	1217.28
851.443	1344.26
851.613	1184.51
851.783	1250.05
851.954	1118.98
852.124	1200.9
852.294	1157.89
852.465	1157.89
852.635	1237.76
852.805	1237.76
852.975	1196.8
853.145	1239.81
853.316	1204.99
853.486	1116.93
853.656	1094.4
853.826	1190.66
853.996	1086.21
854.166	1137.41
854.337	1153.79
854.507	1225.47
854.677	1121.03
854.847	1168.13
855.017	1047.3
855.187	1053.44
855.357	1112.83
855.527	1069.83
855.697	1129.22
855.867	1121.03
856.037	1073.92
856.207	1127.17
856.377	1012.48
856.547	1084.16
856.717	955.14
856.887	1047.3
857.057	1090.31
857.227	998.15
857.397	955.14
857.566	1030.92
857.736	901.89
857.906	1004.29
858.076	1020.68
858.246	992
858.416	981.76
858.585	899.85
858.755	920.33
858.925	977.67
859.095	940.81
859.264	875.27
859.434	897.8
859.604	920.33
859.774	916.23
859.943	858.89
860.113	926.47
860.283	881.41
860.452	824.07
860.622	934.66
860.791	905.99
860.961	959.24
861.131	840.45
861.3	830.22
861.47	897.8
861.639	830.22
861.809	869.13
861.978	965.38
862.148	934.66
862.318	865.03
862.487	824.07
862.657	793.35
862.826	754.44
862.995	733.96
863.165	807.69
863.334	965.38
863.504	844.55
863.673	742.15
863.843	887.56
864.012	922.37
864.181	875.27
864.351	881.41
864.52	881.41
864.689	795.4
864.859	819.98
865.028	795.4
865.197	770.82
865.366	774.92
865.536	795.4
865.705	838.41
865.874	750.34
866.043	760.58
866.213	793.35
866.382	742.15
866.551	768.78
866.72	725.77
866.889	748.3
867.059	785.16
867.228	779.02
867.397	772.87
867.566	654.09
867.735	709.38
867.904	766.73
868.073	758.54
868.242	721.67
868.411	746.25
868.58	717.58
868.749	717.58
868.918	660.23
869.087	793.35
869.256	719.62
869.425	729.86
869.594	795.4
869.763	660.23
869.932	719.62
870.101	672.52
870.27	762.63
870.439	703.24
870.608	742.15
870.777	754.44
870.945	664.33
871.114	643.85
871.283	670.47
871.452	668.43
871.621	676.62
871.789	693
871.958	627.47
872.127	625.42
872.296	621.32
872.464	652.04
872.633	615.18
872.802	604.94
872.971	625.42
873.139	701.19
873.308	611.08
873.477	654.09
873.645	619.27
873.814	574.22
873.983	676.62
874.151	695.05
874.32	658.19
874.488	594.7
874.657	658.19
874.826	660.23
874.994	594.7
875.163	668.43
875.331	631.56
875.5	643.85
875.668	643.85
875.837	627.47
876.005	619.27
876.174	703.24
876.342	570.12
876.51	531.21
876.679	506.64
876.847	621.32
877.016	623.37
877.184	611.08
877.352	695.05
877.521	504.59
877.689	594.7
877.857	627.47
878.026	652.04
878.194	619.27
878.362	537.36
878.531	590.6
878.699	594.7
878.867	596.75
879.036	512.78
879.204	504.59
879.372	596.75
879.54	586.51
879.708	520.97
879.877	520.97
880.045	559.88
880.213	496.4
880.381	537.36
880.549	613.13
880.717	523.02
880.885	541.45
881.054	537.36
881.222	482.06
881.39	551.69
881.558	611.08
881.726	594.7
881.894	529.16
882.062	459.53
882.23	461.58
882.398	574.22
882.566	533.26
882.734	516.88
882.902	545.55
883.07	566.03
883.238	520.97
883.406	537.36
883.574	537.36
883.741	463.63
883.909	520.97
884.077	533.26
884.245	463.63
884.413	537.36
884.581	475.92
884.749	568.08
884.916	588.55
885.084	518.92
885.252	484.11
885.42	549.64
885.587	566.03
885.755	531.21
885.923	514.83
886.091	547.6
886.258	520.97
886.426	537.36
886.594	506.64
886.761	533.26
886.929	512.78
887.097	512.78
887.264	549.64
887.432	500.49
887.6	533.26
887.767	439.05
887.935	598.79
888.102	584.46
888.27	625.42
888.438	563.98
888.605	455.44
888.773	469.77
888.94	504.59
889.108	508.68
889.275	480.01
889.443	439.05
889.61	516.88
889.778	512.78
889.945	469.77
890.112	473.87
890.28	496.4
890.447	441.1
890.615	520.97
890.782	480.01
890.949	520.97
891.117	490.25
891.284	414.48
891.452	488.2
891.619	508.68
891.786	492.3
891.953	463.63
892.121	498.44
892.288	439.05
892.455	533.26
892.623	432.91
892.79	555.79
892.957	531.21
893.124	512.78
893.291	475.92
893.459	496.4
893.626	566.03
893.793	516.88
893.96	518.92
894.127	453.39
894.294	475.92
894.461	463.63
894.629	463.63
894.796	471.82
894.963	539.4
895.13	533.26
895.297	488.2
895.464	471.82
895.631	504.59
895.798	488.2
895.965	582.41
896.132	514.83
896.299	537.36
896.466	504.59
896.633	563.98
896.8	514.83
896.967	516.88
897.134	465.68
897.301	525.07
897.467	480.01
897.634	459.53
897.801	490.25
897.968	426.77
898.135	449.29
898.302	469.77
898.469	482.06
898.635	424.72
898.802	439.05
898.969	406.29
899.136	430.86
899.303	541.45
