Data from light_USB4E013581_00002.txt Node
Date: Wed May 08 15:04:40 EDT 2019
User: dh1006
Spectrometer: USB4E01358
Autoset integration time: false
Trigger mode: 4
Integration Time (sec): 2.925000E-2
Scans to average: 1
Electric dark correction enabled: true
Nonlinearity correction enabled: false
Boxcar width: 0
Stray light correction enabled: false
XAxis mode: Wavelengths
Stop averaging: false
Number of Pixels in Spectrum: 3648
>>>>>Begin Spectral Data<<<<<
176.727	-67.43
176.966	-67.43
177.205	-67.43
177.444	-46.95
177.683	-5.99
177.922	118.94
178.161	12.45
178.4	30.88
178.638	-8.03
178.877	24.73
179.116	14.49
179.355	45.21
179.593	16.54
179.832	20.64
180.071	-48.99
180.309	45.21
180.548	37.02
180.786	47.26
181.025	71.84
181.263	37.02
181.502	94.36
181.74	88.22
181.979	71.84
182.217	135.32
182.456	135.32
182.694	22.69
182.932	77.98
183.17	65.69
183.409	65.69
183.647	73.88
183.885	94.36
184.123	90.27
184.361	73.88
184.6	75.93
184.838	112.8
185.076	96.41
185.314	104.6
185.552	94.36
185.79	127.13
186.028	94.36
186.266	71.84
186.503	80.03
186.741	106.65
186.979	86.17
187.217	65.69
187.455	118.94
187.693	98.46
187.93	84.12
188.168	41.12
188.406	73.88
188.643	96.41
188.881	88.22
189.119	88.22
189.356	49.31
189.594	84.12
189.831	104.6
190.069	94.36
190.306	123.04
190.543	94.36
190.781	94.36
191.018	102.56
191.256	47.26
191.493	0.16
191.73	77.98
191.967	114.84
192.205	88.22
192.442	102.56
192.679	106.65
192.916	127.13
193.153	104.6
193.39	69.79
193.628	118.94
193.865	86.17
194.102	94.36
194.339	88.22
194.576	149.66
194.813	61.6
195.049	86.17
195.286	80.03
195.523	12.45
195.76	71.84
195.997	90.27
196.234	143.52
196.47	86.17
196.707	137.37
196.944	49.31
197.18	104.6
197.417	20.64
197.654	69.79
197.89	14.49
198.127	184.47
198.363	59.55
198.6	92.32
198.836	170.14
199.073	102.56
199.309	135.32
199.546	69.79
199.782	45.21
200.018	108.7
200.255	71.84
200.491	88.22
200.727	80.03
200.963	69.79
201.199	129.18
201.436	100.51
201.672	63.64
201.908	114.84
202.144	106.65
202.38	45.21
202.616	92.32
202.852	151.71
203.088	30.88
203.324	147.61
203.56	77.98
203.796	80.03
204.032	57.5
204.268	41.12
204.503	118.94
204.739	120.99
204.975	86.17
205.211	94.36
205.446	98.46
205.682	161.95
205.918	53.4
206.153	69.79
206.389	133.28
206.625	96.41
206.86	32.93
207.096	65.69
207.331	51.36
207.567	110.75
207.802	90.27
208.037	82.08
208.273	94.36
208.508	28.83
208.744	98.46
208.979	71.84
209.214	45.21
209.449	82.08
209.685	110.75
209.92	82.08
210.155	73.88
210.39	26.78
210.625	45.21
210.86	53.4
211.095	39.07
211.33	65.69
211.565	102.56
211.8	61.6
212.035	53.4
212.27	123.04
212.505	65.69
212.74	110.75
212.975	61.6
213.21	137.37
213.444	71.84
213.679	73.88
213.914	147.61
214.149	63.64
214.383	106.65
214.618	77.98
214.853	37.02
215.087	100.51
215.322	51.36
215.556	61.6
215.791	110.75
216.025	104.6
216.26	71.84
216.494	10.4
216.729	30.88
216.963	77.98
217.197	53.4
217.432	80.03
217.666	53.4
217.9	98.46
218.135	80.03
218.369	172.19
218.603	71.84
218.837	108.7
219.071	94.36
219.306	145.56
219.54	86.17
219.774	127.13
220.008	20.64
220.242	53.4
220.476	57.5
220.71	104.6
220.944	55.45
221.178	69.79
221.411	94.36
221.645	90.27
221.879	61.6
222.113	137.37
222.347	71.84
222.58	28.83
222.814	96.41
223.048	168.09
223.281	94.36
223.515	110.75
223.749	-3.94
223.982	159.9
224.216	82.08
224.449	77.98
224.683	80.03
224.916	118.94
225.15	161.95
225.383	73.88
225.617	112.8
225.85	73.88
226.083	59.55
226.317	61.6
226.55	55.45
226.783	137.37
227.016	94.36
227.25	90.27
227.483	123.04
227.716	135.32
227.949	88.22
228.182	69.79
228.415	86.17
228.648	98.46
228.881	123.04
229.114	151.71
229.347	108.7
229.58	110.75
229.813	30.88
230.046	94.36
230.279	92.32
230.512	110.75
230.745	114.84
230.977	131.23
231.21	96.41
231.443	127.13
231.675	53.4
231.908	80.03
232.141	82.08
232.373	98.46
232.606	104.6
232.839	61.6
233.071	51.36
233.304	120.99
233.536	94.36
233.769	65.69
234.001	155.8
234.233	53.4
234.466	139.42
234.698	114.84
234.93	137.37
235.163	65.69
235.395	37.02
235.627	84.12
235.86	137.37
236.092	57.5
236.324	86.17
236.556	120.99
236.788	96.41
237.02	73.88
237.252	16.54
237.484	116.89
237.716	77.98
237.948	28.83
238.18	112.8
238.412	131.23
238.644	86.17
238.876	102.56
239.108	90.27
239.34	192.67
239.571	143.52
239.803	106.65
240.035	120.99
240.267	135.32
240.498	135.32
240.73	32.93
240.962	100.51
241.193	28.83
241.425	77.98
241.656	53.4
241.888	110.75
242.119	86.17
242.351	102.56
242.582	129.18
242.814	69.79
243.045	75.93
243.277	84.12
243.508	32.93
243.739	96.41
243.971	84.12
244.202	92.32
244.433	102.56
244.664	82.08
244.896	129.18
245.127	98.46
245.358	135.32
245.589	41.12
245.82	41.12
246.051	61.6
246.282	57.5
246.513	118.94
246.744	98.46
246.975	123.04
247.206	147.61
247.437	39.07
247.668	110.75
247.899	-3.94
248.129	82.08
248.36	110.75
248.591	112.8
248.822	43.16
249.052	110.75
249.283	98.46
249.514	118.94
249.744	96.41
249.975	127.13
250.206	88.22
250.436	157.85
250.667	57.5
250.897	110.75
251.128	104.6
251.358	118.94
251.589	88.22
251.819	151.71
252.049	102.56
252.28	202.91
252.51	155.8
252.74	127.13
252.971	22.69
253.201	47.26
253.431	75.93
253.661	102.56
253.891	61.6
254.121	114.84
254.352	98.46
254.582	94.36
254.812	106.65
255.042	71.84
255.272	71.84
255.502	135.32
255.732	145.56
255.962	84.12
256.192	53.4
256.421	114.84
256.651	73.88
256.881	127.13
257.111	90.27
257.341	41.12
257.57	45.21
257.8	24.73
258.03	127.13
258.259	127.13
258.489	110.75
258.719	80.03
258.948	41.12
259.178	94.36
259.407	114.84
259.637	94.36
259.866	22.69
260.096	110.75
260.325	80.03
260.555	106.65
260.784	143.52
261.013	53.4
261.243	127.13
261.472	127.13
261.701	102.56
261.931	151.71
262.16	98.46
262.389	106.65
262.618	65.69
262.847	159.9
263.076	53.4
263.305	86.17
263.535	145.56
263.764	-3.94
263.993	118.94
264.222	94.36
264.451	168.09
264.679	104.6
264.908	41.12
265.137	96.41
265.366	135.32
265.595	96.41
265.824	118.94
266.053	45.21
266.281	45.21
266.51	135.32
266.739	102.56
266.967	131.23
267.196	73.88
267.425	96.41
267.653	37.02
267.882	98.46
268.11	73.88
268.339	98.46
268.567	118.94
268.796	137.37
269.024	118.94
269.253	104.6
269.481	129.18
269.709	43.16
269.938	102.56
270.166	61.6
270.394	123.04
270.623	73.88
270.851	170.14
271.079	110.75
271.307	69.79
271.535	94.36
271.764	28.83
271.992	204.95
272.22	102.56
272.448	114.84
272.676	147.61
272.904	20.64
273.132	118.94
273.36	127.13
273.588	100.51
273.816	168.09
274.043	32.93
274.271	139.42
274.499	151.71
274.727	127.13
274.955	98.46
275.182	63.64
275.41	135.32
275.638	118.94
275.866	112.8
276.093	129.18
276.321	65.69
276.548	77.98
276.776	77.98
277.003	131.23
277.231	135.32
277.458	102.56
277.686	92.32
277.913	104.6
278.141	102.56
278.368	118.94
278.595	112.8
278.823	71.84
279.05	178.33
279.277	32.93
279.505	63.64
279.732	102.56
279.959	114.84
280.186	116.89
280.413	94.36
280.641	112.8
280.868	104.6
281.095	82.08
281.322	102.56
281.549	127.13
281.776	114.84
282.003	108.7
282.23	57.5
282.457	123.04
282.683	133.28
282.91	73.88
283.137	94.36
283.364	143.52
283.591	100.51
283.818	94.36
284.044	135.32
284.271	94.36
284.498	129.18
284.724	108.7
284.951	88.22
285.178	59.55
285.404	71.84
285.631	37.02
285.857	108.7
286.084	147.61
286.31	63.64
286.537	88.22
286.763	143.52
286.99	47.26
287.216	2.21
287.442	49.31
287.669	63.64
287.895	147.61
288.121	149.66
288.347	114.84
288.574	139.42
288.8	69.79
289.026	118.94
289.252	151.71
289.478	155.8
289.704	112.8
289.931	82.08
290.157	77.98
290.383	47.26
290.609	104.6
290.835	73.88
291.06	131.23
291.286	69.79
291.512	39.07
291.738	94.36
291.964	118.94
292.19	120.99
292.416	120.99
292.641	16.54
292.867	145.56
293.093	53.4
293.319	161.95
293.544	61.6
293.77	80.03
293.995	84.12
294.221	108.7
294.447	77.98
294.672	67.74
294.898	61.6
295.123	94.36
295.349	53.4
295.574	90.27
295.799	161.95
296.025	82.08
296.25	118.94
296.476	98.46
296.701	161.95
296.926	127.13
297.151	123.04
297.377	159.9
297.602	108.7
297.827	123.04
298.052	41.12
298.277	86.17
298.502	37.02
298.727	192.67
298.953	114.84
299.178	118.94
299.403	80.03
299.628	110.75
299.852	184.47
300.077	96.41
300.302	98.46
300.527	143.52
300.752	65.69
300.977	159.9
301.202	110.75
301.426	116.89
301.651	114.84
301.876	116.89
302.101	71.84
302.325	102.56
302.55	135.32
302.775	82.08
302.999	-1.89
303.224	157.85
303.448	114.84
303.673	110.75
303.897	100.51
304.122	82.08
304.346	90.27
304.571	131.23
304.795	131.23
305.019	88.22
305.244	106.65
305.468	94.36
305.692	69.79
305.917	120.99
306.141	159.9
306.365	143.52
306.589	118.94
306.813	112.8
307.038	110.75
307.262	88.22
307.486	80.03
307.71	161.95
307.934	151.71
308.158	20.64
308.382	84.12
308.606	164
308.83	73.88
309.054	86.17
309.278	65.69
309.502	94.36
309.725	41.12
309.949	145.56
310.173	120.99
310.397	159.9
310.62	102.56
310.844	141.47
311.068	110.75
311.292	92.32
311.515	82.08
311.739	94.36
311.962	102.56
312.186	143.52
312.41	73.88
312.633	145.56
312.857	131.23
313.08	159.9
313.303	86.17
313.527	139.42
313.75	151.71
313.974	143.52
314.197	143.52
314.42	135.32
314.644	77.98
314.867	110.75
315.09	94.36
315.313	145.56
315.536	112.8
315.76	88.22
315.983	106.65
316.206	133.28
316.429	125.08
316.652	106.65
316.875	39.07
317.098	77.98
317.321	131.23
317.544	98.46
317.767	112.8
317.99	102.56
318.213	100.51
318.436	172.19
318.658	118.94
318.881	118.94
319.104	129.18
319.327	71.84
319.55	39.07
319.772	110.75
319.995	159.9
320.218	131.23
320.44	151.71
320.663	102.56
320.885	147.61
321.108	149.66
321.331	155.8
321.553	155.8
321.776	108.7
321.998	77.98
322.22	88.22
322.443	116.89
322.665	110.75
322.888	41.12
323.11	45.21
323.332	65.69
323.555	102.56
323.777	135.32
323.999	69.79
324.221	69.79
324.443	98.46
324.666	155.8
324.888	77.98
325.11	110.75
325.332	127.13
325.554	88.22
325.776	63.64
325.998	120.99
326.22	47.26
326.442	176.28
326.664	141.47
326.886	96.41
327.108	75.93
327.33	65.69
327.551	98.46
327.773	118.94
327.995	98.46
328.217	90.27
328.439	129.18
328.66	147.61
328.882	67.74
329.104	139.42
329.325	-5.99
329.547	98.46
329.769	135.32
329.99	110.75
330.212	77.98
330.433	100.51
330.655	131.23
330.876	164
331.098	114.84
331.319	172.19
331.54	94.36
331.762	178.33
331.983	98.46
332.204	110.75
332.426	133.28
332.647	147.61
332.868	118.94
333.089	59.55
333.311	114.84
333.532	151.71
333.753	114.84
333.974	86.17
334.195	127.13
334.416	114.84
334.637	168.09
334.858	69.79
335.079	127.13
335.3	135.32
335.521	131.23
335.742	118.94
335.963	69.79
336.184	161.95
336.405	141.47
336.626	112.8
336.846	65.69
337.067	147.61
337.288	135.32
337.509	118.94
337.729	53.4
337.95	125.08
338.171	80.03
338.391	159.9
338.612	71.84
338.833	53.4
339.053	77.98
339.274	73.88
339.494	90.27
339.715	106.65
339.935	94.36
340.156	151.71
340.376	168.09
340.596	63.64
340.817	123.04
341.037	149.66
341.257	32.93
341.478	118.94
341.698	123.04
341.918	102.56
342.138	92.32
342.359	116.89
342.579	57.5
342.799	127.13
343.019	202.91
343.239	143.52
343.459	12.45
343.679	139.42
343.899	172.19
344.119	94.36
344.339	118.94
344.559	131.23
344.779	149.66
344.999	186.52
345.219	118.94
345.439	176.28
345.658	98.46
345.878	118.94
346.098	143.52
346.318	147.61
346.537	45.21
346.757	110.75
346.977	106.65
347.196	143.52
347.416	110.75
347.636	155.8
347.855	123.04
348.075	82.08
348.294	129.18
348.514	141.47
348.733	139.42
348.953	184.47
349.172	92.32
349.392	176.28
349.611	75.93
349.83	164
350.05	110.75
350.269	106.65
350.488	159.9
350.707	125.08
350.927	96.41
351.146	176.28
351.365	131.23
351.584	82.08
351.803	112.8
352.023	55.45
352.242	139.42
352.461	149.66
352.68	45.21
352.899	47.26
353.118	178.33
353.337	47.26
353.556	102.56
353.775	41.12
353.993	110.75
354.212	80.03
354.431	149.66
354.65	73.88
354.869	73.88
355.088	143.52
355.306	90.27
355.525	84.12
355.744	104.6
355.962	135.32
356.181	98.46
356.4	129.18
356.618	98.46
356.837	139.42
357.055	116.89
357.274	108.7
357.492	139.42
357.711	159.9
357.929	96.41
358.148	92.32
358.366	137.37
358.585	131.23
358.803	104.6
359.021	98.46
359.24	192.67
359.458	129.18
359.676	102.56
359.894	98.46
360.113	69.79
360.331	59.55
360.549	159.9
360.767	170.14
360.985	77.98
361.203	112.8
361.421	155.8
361.639	118.94
361.857	123.04
362.075	209.05
362.293	90.27
362.511	137.37
362.729	202.91
362.947	127.13
363.165	110.75
363.383	102.56
363.601	116.89
363.819	200.86
364.036	84.12
364.254	120.99
364.472	34.97
364.689	118.94
364.907	129.18
365.125	116.89
365.342	45.21
365.56	170.14
365.778	147.61
365.995	104.6
366.213	102.56
366.43	127.13
366.648	102.56
366.865	184.47
367.083	157.85
367.3	159.9
367.517	135.32
367.735	82.08
367.952	80.03
368.17	151.71
368.387	82.08
368.604	153.76
368.821	114.84
369.039	159.9
369.256	104.6
369.473	73.88
369.69	127.13
369.907	77.98
370.124	143.52
370.341	90.27
370.558	32.93
370.776	164
370.993	161.95
371.21	129.18
371.426	106.65
371.643	73.88
371.86	94.36
372.077	170.14
372.294	100.51
372.511	164
372.728	86.17
372.945	143.52
373.161	118.94
373.378	96.41
373.595	157.85
373.811	106.65
374.028	135.32
374.245	98.46
374.461	102.56
374.678	135.32
374.895	143.52
375.111	170.14
375.328	110.75
375.544	139.42
375.761	159.9
375.977	73.88
376.194	153.76
376.41	77.98
376.626	112.8
376.843	118.94
377.059	178.33
377.275	182.43
377.492	153.76
377.708	170.14
377.924	194.71
378.14	120.99
378.357	141.47
378.573	84.12
378.789	147.61
379.005	88.22
379.221	69.79
379.437	92.32
379.653	96.41
379.869	133.28
380.085	204.95
380.301	233.63
380.517	159.9
380.733	102.56
380.949	104.6
381.165	153.76
381.381	110.75
381.597	153.76
381.813	155.8
382.028	200.86
382.244	180.38
382.46	182.43
382.676	262.3
382.891	241.82
383.107	172.19
383.323	151.71
383.538	135.32
383.754	235.67
383.969	252.06
384.185	215.19
384.4	127.13
384.616	217.24
384.831	159.9
385.047	131.23
385.262	237.72
385.478	168.09
385.693	268.44
385.909	153.76
386.124	200.86
386.339	217.24
386.554	153.76
386.77	180.38
386.985	159.9
387.2	233.63
387.415	237.72
387.631	186.52
387.846	145.56
388.061	184.47
388.276	219.29
388.491	209.05
388.706	184.47
388.921	192.67
389.136	200.86
389.351	159.9
389.566	221.34
389.781	258.2
389.996	194.71
390.211	198.81
390.426	256.15
390.641	194.71
390.855	186.52
391.07	282.78
391.285	237.72
391.5	213.15
391.714	241.82
391.929	309.4
392.144	258.2
392.358	333.98
392.573	213.15
392.788	229.53
393.002	250.01
393.217	250.01
393.431	260.25
393.646	239.77
393.86	307.35
394.075	309.4
394.289	286.87
394.504	235.67
394.718	348.31
394.933	288.92
395.147	368.79
395.361	315.54
395.576	426.14
395.79	399.51
396.004	413.85
396.218	366.74
396.432	366.74
396.647	413.85
396.861	381.08
397.075	405.66
397.289	395.42
397.503	463
397.717	401.56
397.931	432.28
398.145	409.75
398.359	452.76
398.573	450.71
398.787	520.34
399.001	401.56
399.215	389.27
399.429	602.26
399.643	477.33
399.857	508.05
400.07	565.4
400.284	561.3
400.498	544.92
400.712	571.54
400.925	553.11
401.139	471.19
401.353	561.3
401.566	680.08
401.78	682.13
401.994	618.64
402.207	602.26
402.421	653.46
402.634	637.08
402.848	675.99
403.061	643.22
403.275	739.47
403.488	778.39
403.702	811.15
403.915	712.85
404.128	839.82
404.342	757.91
404.555	782.48
404.768	817.3
404.982	839.82
405.195	880.78
405.408	839.82
405.621	1003.66
405.835	899.22
406.048	962.7
406.261	936.08
406.474	979.09
406.687	974.99
406.9	1026.19
407.113	993.42
407.326	974.99
407.539	1024.14
407.752	1128.59
407.965	1138.83
408.178	1028.24
408.391	1110.16
408.604	1200.27
408.817	1251.47
409.029	1265.8
409.242	1208.46
409.455	1271.95
409.668	1333.39
409.881	1343.63
410.093	1339.53
410.306	1298.57
410.519	1360.01
410.731	1347.72
410.944	1298.57
411.157	1405.06
411.369	1552.52
411.582	1573
411.794	1589.38
412.007	1507.46
412.219	1495.17
412.432	1552.52
412.644	1693.83
412.857	1683.59
413.069	1738.88
413.281	1740.93
413.494	1634.44
413.706	1683.59
413.918	1699.97
414.131	1740.93
414.343	1765.51
414.555	1777.79
414.767	1816.71
414.979	1702.02
415.192	1740.93
415.404	1831.04
415.616	1882.24
415.828	1831.04
416.04	2007.17
416.252	1759.36
416.464	2007.17
416.676	2019.45
416.888	1986.69
417.1	1888.38
417.312	2044.03
417.524	2005.12
417.736	2105.47
417.948	2119.81
418.159	2144.38
418.371	1941.63
418.583	2121.85
418.795	2027.65
419.007	2068.61
419.218	2259.07
419.43	2093.18
419.642	2216.06
419.853	2320.51
420.065	2160.76
420.276	2297.98
420.488	2363.51
420.7	2242.68
420.911	2404.47
421.123	2367.61
421.334	2297.98
421.546	2275.45
421.757	2470.01
421.969	2396.28
422.18	2424.95
422.391	2330.75
422.603	2429.05
422.814	2529.4
423.025	2543.73
423.237	2381.95
423.448	2529.4
423.659	2668.66
423.87	2543.73
424.082	2592.89
424.293	2490.49
424.504	2580.6
424.715	2668.66
424.926	2670.71
425.137	2510.97
425.348	2504.82
425.559	2568.31
425.77	2637.94
425.981	2621.56
426.192	2687.09
426.403	2789.49
426.614	2699.38
426.825	2764.92
427.036	2644.09
427.247	2558.07
427.458	2740.34
427.668	2721.91
427.879	2601.08
428.09	2605.17
428.301	2879.6
428.511	2502.78
428.722	2629.75
428.933	2740.34
429.143	2715.76
429.354	2781.3
429.565	2973.81
429.775	2906.23
429.986	2785.4
430.196	2635.89
430.407	2820.21
430.617	2777.2
430.828	2699.38
431.038	2793.59
431.249	2715.76
431.459	2840.69
431.669	2783.35
431.88	2809.97
432.09	2728.05
432.3	2920.56
432.511	2855.03
432.721	2756.72
432.931	2875.51
433.141	2793.59
433.351	2744.44
433.562	2793.59
433.772	2988.14
433.982	2857.07
434.192	2883.7
434.402	2871.41
434.612	2664.56
434.822	2863.22
435.032	2871.41
435.242	2809.97
435.452	2891.89
435.662	2674.8
435.872	2820.21
436.082	2809.97
436.292	2707.57
436.502	2715.76
436.711	2873.46
436.921	2762.87
437.131	2873.46
437.341	2695.28
437.551	2932.85
437.76	2728.05
437.97	2744.44
438.18	2717.81
438.389	2676.85
438.599	2711.67
438.808	2680.95
439.018	2807.92
439.228	2666.61
439.437	2633.85
439.647	2674.8
439.856	2656.37
440.066	2685.04
440.275	2728.05
440.484	2709.62
440.694	2693.24
440.903	2732.15
441.113	2515.06
441.322	2723.96
441.531	2625.65
441.741	2805.87
441.95	2726
442.159	2756.72
442.368	2746.48
442.577	2705.52
442.787	2535.54
442.996	2695.28
443.205	2670.71
443.414	2842.74
443.623	2617.46
443.832	2629.75
444.041	2623.61
444.25	2470.01
444.459	2582.65
444.668	2619.51
444.877	2615.41
445.086	2592.89
445.295	2539.64
445.504	2588.79
445.713	2447.48
445.922	2553.97
446.13	2642.04
446.339	2541.69
446.548	2461.82
446.757	2523.26
446.965	2510.97
447.174	2463.86
447.383	2496.63
447.591	2443.38
447.8	2357.37
448.009	2562.17
448.217	2568.31
448.426	2539.64
448.634	2396.28
448.843	2627.7
449.051	2402.42
449.26	2547.83
449.468	2496.63
449.677	2558.07
449.885	2433.14
450.093	2510.97
450.302	2449.53
450.51	2504.82
450.719	2445.43
450.927	2543.73
451.135	2619.51
451.343	2584.69
451.552	2611.32
451.76	2560.12
451.968	2447.48
452.176	2465.91
452.384	2519.16
452.592	2474.1
452.8	2535.54
453.009	2492.54
453.217	2537.59
453.425	2496.63
453.633	2416.76
453.841	2476.15
454.049	2416.76
454.257	2513.02
454.464	2445.43
454.672	2584.69
454.88	2535.54
455.088	2504.82
455.296	2361.47
455.504	2302.07
455.711	2504.82
455.919	2513.02
456.127	2414.71
456.335	2650.23
456.542	2455.67
456.75	2379.9
456.958	2482.3
457.165	2506.87
457.373	2429.05
457.581	2551.93
457.788	2562.17
457.996	2515.06
458.203	2537.59
458.411	2637.94
458.618	2388.09
458.826	2402.42
459.033	2619.51
459.24	2461.82
459.448	2672.76
459.655	2592.89
459.863	2668.66
460.07	2715.76
460.277	2691.19
460.484	2549.88
460.692	2510.97
460.899	2568.31
461.106	2478.2
461.313	2756.72
461.52	2558.07
461.728	2537.59
461.935	2721.91
462.142	2723.96
462.349	2513.02
462.556	2709.62
462.763	2666.61
462.97	2867.31
463.177	2560.12
463.384	2699.38
463.591	2809.97
463.798	2580.6
464.005	2760.82
464.212	2703.48
464.418	2715.76
464.625	2865.27
464.832	2889.84
465.039	2734.2
465.246	2781.3
465.452	2887.79
465.659	2922.61
465.866	2963.57
466.072	2781.3
466.279	3119.21
466.486	2953.33
466.692	2877.55
466.899	2838.64
467.105	2873.46
467.312	2730.1
467.519	2938.99
467.725	2963.57
467.931	2975.86
468.138	2912.37
468.344	3154.03
468.551	2895.99
468.757	3125.36
468.964	3192.94
469.17	3010.67
469.376	3176.56
469.583	3102.83
469.789	3311.72
469.995	3166.32
470.201	3231.85
470.408	3248.24
470.614	3307.63
470.82	3491.94
471.026	3303.53
471.232	3356.78
471.438	3274.86
471.644	3459.18
471.85	3606.63
472.056	3438.7
472.262	3612.77
472.468	3410.03
472.674	3608.68
472.88	3575.91
473.086	3596.39
473.292	3676.26
473.498	3836
473.704	3756.13
473.91	3807.33
474.116	3772.52
474.321	3741.8
474.527	3797.09
474.733	3979.36
474.939	3883.11
475.144	3944.55
475.35	4077.66
475.556	3899.49
475.761	4044.9
475.967	4102.24
476.173	4171.87
476.378	4253.79
476.584	4165.73
476.789	4245.6
476.995	4354.14
477.2	4339.8
477.406	4423.77
477.611	4530.26
477.817	4595.8
478.022	4335.71
478.227	4685.91
478.433	4440.15
478.638	4638.81
478.843	4640.85
479.049	4687.96
479.254	4882.52
479.459	4741.21
479.664	4847.7
479.87	4825.17
480.075	4902.99
480.28	4929.62
480.485	4776.02
480.69	4898.9
480.895	5011.54
481.1	5046.35
481.306	5118.03
481.511	5378.12
481.716	5202
481.921	5253.2
482.126	5345.36
482.33	5421.13
482.535	5492.81
482.74	5345.36
482.945	5474.38
483.15	5472.33
483.355	5501
483.56	5666.89
483.765	5582.92
483.969	5654.6
484.174	5627.98
484.379	5818.44
484.583	5754.95
484.788	5877.83
484.993	5650.5
485.197	5791.81
485.402	5828.68
485.607	6027.33
485.811	6068.29
486.016	6066.24
486.22	5783.62
486.425	6139.97
486.629	6209.6
486.834	6172.74
487.038	6103.1
487.243	6254.65
487.447	6318.14
487.652	6463.55
487.856	6297.66
488.06	6312
488.265	6467.64
488.469	6475.83
488.673	6522.94
488.877	6529.08
489.082	6322.24
489.286	6410.3
489.49	6504.51
489.694	6772.79
489.898	6641.72
490.102	6731.83
490.307	6778.93
490.511	7010.35
490.715	6690.87
490.919	6910
491.123	6803.51
491.327	7061.55
491.531	7061.55
491.735	7002.16
491.939	6998.07
492.143	7364.65
492.346	6942.77
492.55	7233.58
492.754	7098.42
492.958	7096.37
493.162	7188.53
493.366	7338.03
493.569	7551.02
493.773	7479.34
493.977	7479.34
494.18	7182.38
494.384	7233.58
494.588	7610.41
494.791	7280.69
494.995	7569.45
495.199	7407.66
495.402	7671.85
495.606	7557.16
495.809	7761.96
496.013	7440.43
496.216	7757.86
496.42	7903.27
496.623	7852.07
496.827	8015.91
497.03	7860.26
497.233	8005.67
497.437	8187.94
497.64	8095.78
497.843	8402.97
498.047	8319.01
498.25	8298.53
498.453	8110.11
498.656	8314.91
498.86	7999.52
499.063	8400.93
499.266	8433.69
499.469	8345.63
499.672	8298.53
499.875	8607.77
500.078	8591.39
500.281	8624.15
500.484	8513.56
500.687	8517.66
500.89	8568.86
501.093	8642.59
501.296	8556.57
501.499	8925.21
501.702	8859.67
501.905	8835.09
502.108	8845.33
502.311	8966.16
502.514	8951.83
502.716	9107.47
502.919	8986.64
503.122	9062.42
503.325	9349.13
503.527	9211.92
503.73	9213.97
503.933	9414.67
504.135	9220.11
504.338	9496.59
504.541	9308.18
504.743	9703.43
504.946	9429.01
505.148	9590.8
505.351	9574.41
505.553	9949.19
505.756	9756.68
505.958	9941
506.161	9996.29
506.363	9809.93
506.565	9814.02
506.768	10094.6
506.97	10082.31
507.172	10188.8
507.375	10096.64
507.577	10301.44
507.779	10194.95
507.982	10452.99
508.184	10268.67
508.386	10346.5
508.588	10534.91
508.79	10643.45
508.993	10631.16
509.195	10934.26
509.397	10956.79
509.599	10921.97
509.801	10780.67
510.003	11081.72
510.205	10962.93
510.407	11096.05
510.609	11235.31
510.811	11261.94
511.013	11374.58
511.215	11405.3
511.417	11634.67
511.618	11747.31
511.82	11685.87
512.022	11784.17
512.224	11808.75
512.426	11982.82
512.627	12036.07
512.829	12015.59
513.031	12296.16
513.233	12462.05
513.434	12347.36
513.636	12240.87
513.838	12507.1
514.039	12421.09
514.241	12636.12
514.442	12799.96
514.644	12722.14
514.845	13012.95
515.047	13066.2
515.248	13393.87
515.45	13488.08
515.651	13402.07
515.853	13533.14
516.054	13959.11
516.256	13924.3
516.457	13930.44
516.658	13684.68
516.86	13879.24
517.061	13928.39
517.262	14151.62
517.463	14159.81
517.665	14481.34
517.866	14227.4
518.067	14655.42
518.268	14755.77
518.469	14643.13
518.67	14804.92
518.872	14989.24
519.073	14749.63
519.274	15067.06
519.475	14915.51
519.676	15185.85
519.877	15038.39
520.078	15454.13
520.279	15425.46
520.48	15722.41
520.681	15751.09
520.881	15523.76
521.082	15663.02
521.283	15984.55
521.484	15900.59
521.685	15949.74
521.886	16203.69
522.086	16041.9
522.287	16416.68
522.488	16652.19
522.689	16420.77
522.889	16813.98
523.09	16760.73
523.291	17006.49
523.491	16969.63
523.692	16895.9
523.892	16791.45
524.093	17084.31
524.294	16969.63
524.494	17547.15
524.695	17387.41
524.895	17610.64
525.096	17551.25
525.296	17424.28
525.496	17682.32
525.697	17489.81
525.897	17498
526.098	17977.23
526.298	17790.86
526.498	18227.08
526.699	18278.28
526.899	18339.72
527.099	18325.38
527.299	18562.95
527.499	18378.63
527.7	18747.26
527.9	18573.19
528.1	18683.78
528.3	18567.04
528.5	18739.07
528.7	18550.66
528.9	19076.99
529.1	18726.78
529.3	19238.78
529.5	19023.74
529.7	19275.64
529.9	18982.78
530.1	19357.56
530.3	19371.89
530.5	19607.41
530.7	19445.62
530.9	19251.06
531.1	19332.98
531.3	19781.49
531.499	19421.05
531.699	19939.18
531.899	19853.17
532.099	20090.73
532.298	20150.12
532.498	20639.59
532.698	20393.83
532.897	20442.98
533.097	20354.92
533.297	20961.12
533.496	20494.18
533.696	20989.79
533.895	20404.07
534.095	20877.15
534.294	20305.77
534.494	21114.72
534.693	20707.17
534.893	21059.42
535.092	21362.52
535.292	21368.66
535.491	21434.2
535.69	21782.35
535.89	21409.62
536.089	21735.25
536.288	21428.05
536.488	21673.81
536.687	21960.53
536.886	21751.63
537.085	21858.13
537.285	22435.66
537.484	22024.01
537.683	22605.64
537.882	22177.61
538.081	22705.99
538.28	22327.11
538.479	22562.63
538.678	22144.84
538.877	22851.39
539.076	22681.41
539.275	23394.1
539.474	22900.54
539.673	23170.88
539.872	22718.27
540.071	23289.66
540.27	23062.33
540.469	23316.28
540.668	22986.56
540.867	23738.16
541.065	23404.34
541.264	23633.72
541.463	23756.6
541.662	23875.38
541.861	23684.92
542.059	24059.69
542.258	24213.29
542.457	24264.49
542.655	24117.04
542.854	24379.18
543.052	24031.02
543.251	24698.66
543.45	24155.95
543.648	24491.82
543.847	24557.35
544.045	24760.1
544.244	24778.53
544.442	24897.31
544.641	24913.7
544.839	25497.37
545.037	24821.54
545.236	25251.61
545.434	24985.38
545.632	25450.27
545.831	25145.12
546.029	25546.52
546.227	25605.91
546.426	26228.49
546.624	25765.65
546.822	25827.09
547.02	26238.73
547.218	26748.68
547.417	26050.32
547.615	26328.84
547.813	26287.88
548.011	26441.48
548.209	26259.21
548.407	26603.27
548.605	26853.12
548.803	27178.75
549.001	27209.47
549.199	27135.74
549.397	26677
549.595	27141.89
549.793	26715.91
549.991	26855.17
550.189	27021.06
550.387	27475.71
550.584	27373.31
550.782	27199.23
550.98	27293.44
551.178	28018.42
551.376	27875.06
551.573	28110.58
551.771	27911.92
551.969	28405.48
552.166	28096.24
552.364	27739.89
552.562	28315.37
552.759	28155.63
552.957	28059.38
553.154	27995.89
553.352	28055.28
553.55	28698.34
553.747	28288.75
553.945	28557.03
554.142	28696.3
554.339	29374.17
554.537	29030.11
554.734	29316.83
554.932	28737.26
555.129	29413.08
555.326	29320.93
555.524	28989.16
555.721	29206.24
555.918	29935.32
556.116	29783.77
556.313	29544.15
556.51	29961.94
556.707	30222.03
556.904	29902.55
557.102	30699.21
557.299	30162.64
557.496	30316.24
557.693	30271.18
557.89	30881.48
558.087	30408.4
558.284	30777.03
558.481	30312.14
558.678	30719.69
558.875	30721.74
559.072	30684.87
559.269	31119.04
559.466	31098.56
559.663	30518.99
559.86	31069.89
560.057	30672.59
560.254	31186.63
560.45	31624.89
560.647	31583.93
560.844	30893.77
561.041	31880.89
561.237	31671.99
561.434	32550.57
561.631	31952.57
561.828	32523.95
562.024	32063.16
562.221	32972.45
562.418	32198.32
562.614	32519.85
562.811	32855.72
563.007	32581.29
563.204	32433.84
563.4	32911.02
563.597	32843.43
563.793	33060.52
563.99	33298.08
564.186	33564.32
564.383	32771.75
564.579	33597.08
564.775	33250.98
564.972	33466.01
565.168	33498.78
565.365	33564.32
565.561	33066.66
565.757	33525.41
565.953	33390.24
566.15	33506.97
566.346	33554.08
566.542	33873.56
566.738	33228.45
566.934	33443.49
567.131	33656.48
567.327	33601.18
567.523	33318.56
567.719	33896.09
567.915	33308.32
568.111	33441.44
568.307	33351.33
568.503	34203.28
568.699	33920.66
568.895	34268.82
569.091	34061.97
569.287	34508.43
569.483	34428.56
569.679	34610.83
569.875	34455.18
570.07	34537.1
570.266	34604.69
570.462	35135.11
570.658	34283.15
570.854	34406.03
571.049	35045
571.245	35294.85
571.441	35051.14
571.636	35614.33
571.832	35194.5
572.028	35974.78
572.223	35587.71
572.419	36068.98
572.615	35479.17
572.81	35991.16
573.006	35845.75
573.201	35819.13
573.397	35942.01
573.592	36357.75
573.788	35794.56
573.983	36193.91
574.179	36341.36
574.374	36372.08
574.569	36509.3
574.765	36535.92
574.96	35585.66
575.156	35968.63
575.351	35919.48
575.546	36361.84
575.741	36382.32
575.937	36503.15
576.132	36300.4
576.327	36540.02
576.522	35849.85
576.718	36167.29
576.913	36832.88
577.108	36902.51
577.303	36593.26
577.498	37213.8
577.693	36419.19
577.888	36550.26
578.083	36501.1
578.278	36806.25
578.473	36501.1
578.668	36839.02
578.863	36279.92
579.058	37088.87
579.253	36388.47
579.448	37275.24
579.643	37115.5
579.838	37731.93
580.033	37496.42
580.227	37969.5
580.422	36963.95
580.617	37987.93
580.812	37316.2
581.006	37451.36
581.201	37340.77
581.396	37740.13
581.591	37529.18
581.785	37588.58
581.98	37398.11
582.175	37764.7
582.369	37797.47
582.564	38542.93
582.758	38796.88
582.953	38762.06
583.147	38217.3
583.342	38901.32
583.536	38485.59
583.731	38530.64
583.925	37912.16
584.12	38868.56
584.314	38264.41
584.509	38633.04
584.703	38518.35
584.897	38626.9
585.092	38651.47
585.286	38846.03
585.48	38364.76
585.674	38614.61
585.869	38901.32
586.063	38911.56
586.257	38346.32
586.451	39294.53
586.646	38452.82
586.84	38491.73
587.034	38866.51
587.228	39429.7
587.422	38841.93
587.616	39996.99
587.81	39605.83
588.004	40300.09
588.198	39171.66
588.392	39155.27
588.586	38602.32
588.78	39468.61
588.974	39587.39
589.168	39458.37
589.362	38897.23
589.556	39061.07
589.75	38592.08
589.944	39587.39
590.137	39016.01
590.331	39437.89
590.525	39026.25
590.719	40154.68
590.913	39220.81
591.106	39945.79
591.3	39708.22
591.494	40150.58
591.687	40164.92
591.881	40175.16
592.075	39208.52
592.268	40121.91
592.462	39992.89
592.655	39798.33
592.849	39827.01
593.043	40339
593.236	40183.35
593.43	40314.42
593.623	40437.3
593.817	41272.87
594.01	40850.99
594.203	41227.82
594.397	40353.33
594.59	40998.44
594.784	40095.29
594.977	40814.13
595.17	40570.42
595.364	41172.52
595.557	40850.99
595.75	41715.23
595.943	41166.38
596.137	41463.33
596.33	41029.16
596.523	41842.21
596.716	41391.65
596.909	41772.58
597.102	41348.65
597.296	41655.84
597.489	40943.15
597.682	41469.48
597.875	41336.36
598.068	41463.33
598.261	40728.11
598.454	41496.1
598.647	41244.2
598.84	42098.2
599.033	41621.03
599.226	42137.11
599.419	41438.76
599.611	41498.15
599.804	41016.88
599.997	41313.83
600.19	41326.12
600.383	41737.76
600.576	41426.47
600.768	41014.83
600.961	41158.19
601.154	41643.55
601.347	41514.53
601.539	41997.85
601.732	41997.85
601.925	42280.47
602.117	41236.01
602.31	42477.08
602.502	41721.38
602.695	42759.7
602.888	42468.89
603.08	42597.91
603.273	42583.57
603.465	42874.38
603.658	42212.89
603.85	42567.19
604.043	42577.43
604.235	43034.12
604.427	43091.47
604.62	43171.34
604.812	42618.39
605.004	42214.94
605.197	42253.85
605.389	42165.79
605.581	41774.62
605.774	41821.73
605.966	41332.26
606.158	42221.08
606.35	41496.1
606.543	42274.33
606.735	42384.92
606.927	42806.8
607.119	42866.19
607.311	43382.28
607.503	43238.92
607.695	43204.11
607.887	42548.76
608.079	43376.14
608.271	42935.82
608.463	43836.93
608.655	43544.07
608.847	43886.08
609.039	43269.64
609.231	43222.54
609.423	42964.49
609.615	43494.92
609.807	42743.31
609.999	43646.47
610.191	43243.02
610.382	43468.29
610.574	42860.05
610.766	43521.54
610.958	42794.51
611.15	43091.47
611.341	42810.9
611.533	42962.45
611.725	42774.03
611.916	42989.07
612.108	42444.31
612.3	42995.21
612.491	42933.77
612.683	43564.55
612.874	43214.35
613.066	44219.9
613.257	43353.61
613.449	43894.27
613.64	43687.43
613.832	43349.51
614.023	42741.27
614.215	43515.4
614.406	44043.77
614.598	43576.84
614.789	43001.36
614.98	44111.36
615.172	43202.06
615.363	43656.71
615.554	43392.52
615.746	43755.01
615.937	43755.01
616.128	43271.69
616.319	42946.06
616.511	43099.66
616.702	43257.35
616.893	43742.72
617.084	43501.06
617.275	43605.51
617.466	43503.11
617.658	44086.78
617.849	43924.99
618.04	43591.17
618.231	43875.84
618.422	44033.53
618.613	43898.37
618.804	43140.62
618.995	43363.85
619.186	44183.04
619.377	43933.18
619.568	44252.67
619.758	44105.21
619.949	44813.81
620.14	43902.46
620.331	45262.31
620.522	44574.2
620.713	45219.31
620.903	44629.49
621.094	44842.48
621.285	44645.88
621.476	45290.99
621.666	44819.95
621.857	45231.6
622.048	44936.69
622.238	45725.16
622.429	46001.63
622.62	46228.96
622.81	46462.42
623.001	46872.02
623.191	46466.52
623.382	47263.18
623.572	46620.12
623.763	47023.57
623.953	46487
624.144	47523.27
624.334	47281.61
624.525	47687.11
624.715	47390.15
624.905	48041.41
625.096	47218.13
625.286	47553.99
625.477	47891.91
625.667	48858.55
625.857	48539.06
626.047	48897.46
626.238	48088.51
626.428	49034.67
626.618	48197.05
626.808	49339.82
626.999	48481.72
627.189	49038.77
627.379	49604.01
627.569	49925.54
627.759	49415.6
627.949	49657.26
628.139	49536.43
628.329	50216.35
628.519	49601.96
628.709	50603.42
628.899	49487.27
629.089	50410.91
629.279	49761.7
629.469	50316.7
629.659	50120.1
629.849	49767.85
630.039	49571.24
630.229	50341.28
630.419	49317.29
630.609	49964.45
630.798	50048.42
630.988	50118.05
631.178	50308.51
631.368	50521.5
631.557	50136.48
631.747	51043.73
631.937	50093.47
632.127	51029.39
632.316	49108.4
632.506	50611.61
632.696	50521.5
632.885	50234.78
633.075	49837.48
633.264	50029.99
633.454	49499.56
633.643	50810.26
633.833	50144.67
634.022	51109.27
634.212	50541.98
634.401	50709.91
634.591	50781.59
634.78	51174.8
634.97	50396.57
635.159	51416.46
635.348	50202.02
635.538	50587.03
635.727	49948.07
635.916	50355.61
636.106	49888.68
636.295	49790.37
636.484	49132.98
636.674	49898.92
636.863	49399.21
637.052	50193.82
637.241	49728.93
637.43	50857.37
637.619	49755.56
637.809	50847.13
637.998	50748.82
638.187	50136.48
638.376	49298.86
638.565	50097.57
638.754	50042.27
638.943	49849.76
639.132	49309.1
639.321	50122.14
639.51	49251.76
639.699	49153.46
639.888	49159.6
640.077	49833.38
640.266	49585.58
640.455	49272.24
640.643	48932.27
640.832	50138.53
641.021	48821.68
641.21	49350.06
641.399	48750.01
641.587	49298.86
641.776	49884.58
641.965	49376.68
642.154	49604.01
642.342	49020.34
642.531	48489.91
642.72	48559.54
642.908	47736.26
643.097	48690.61
643.286	48457.15
643.474	49022.39
643.663	48684.47
643.851	48727.48
644.04	48651.7
644.228	48235.97
644.417	48176.57
644.605	48563.64
644.794	47977.92
644.982	48612.79
645.171	48455.1
645.359	48473.53
645.547	47883.71
645.736	48608.7
645.924	48072.13
646.112	48291.26
646.301	48479.67
646.489	48670.13
646.677	48047.55
646.866	48616.89
647.054	47697.35
647.242	48211.39
647.43	48025.02
647.618	48881.08
647.807	48768.44
647.995	48506.3
648.183	47904.19
648.371	48369.08
648.559	47418.83
648.747	47840.71
648.935	47527.37
649.123	47996.35
649.311	46927.31
649.499	47617.48
649.687	47723.97
649.875	48258.49
650.063	47822.28
650.251	47678.92
650.439	48027.07
650.627	47875.52
650.815	47998.4
651.003	48242.11
651.191	46958.03
651.378	47592.9
651.566	46998.99
651.754	47873.48
651.942	46843.35
652.13	47064.53
652.317	46595.54
652.505	47687.11
652.693	47246.8
652.88	47392.2
653.068	47586.76
653.256	47662.53
653.443	47424.97
653.631	47400.39
653.819	47070.67
654.006	48055.74
654.194	46613.97
654.381	47846.85
654.569	46990.8
654.756	47613.38
654.944	47009.23
655.131	47611.34
655.319	46900.69
655.506	47138.25
655.693	46491.1
655.881	47320.52
656.068	47316.43
656.256	47760.84
656.443	47826.37
656.63	48063.94
656.818	47433.16
657.005	48203.2
657.192	47470.03
657.379	48121.28
657.567	47580.62
657.754	48514.49
657.941	48115.14
658.128	47814.08
658.315	47136.21
658.502	47683.01
658.69	46736.85
658.877	47250.89
659.064	46609.88
659.251	47830.47
659.438	47205.84
659.625	48113.09
659.812	48319.93
659.999	48266.69
660.186	47988.16
660.373	47769.03
660.56	47603.14
660.747	46958.03
660.934	46894.55
661.121	47148.49
661.308	46786
661.494	46429.66
661.681	47302.09
661.868	47277.52
662.055	46493.14
662.242	47353.29
662.428	46984.66
662.615	47560.14
662.802	46919.12
662.989	47666.63
663.175	47017.42
663.362	47756.74
663.549	46949.84
663.735	47924.67
663.922	47068.62
664.109	47381.96
664.295	46994.9
664.482	47242.7
664.668	46654.93
664.855	47498.7
665.041	46466.52
665.228	47015.38
665.414	46124.51
665.601	46204.38
665.787	45876.71
665.974	46546.39
666.16	46220.76
666.347	46902.74
666.533	45737.44
666.719	47199.69
666.906	46611.93
667.092	46704.08
667.278	46036.45
667.465	46523.86
667.651	45835.75
667.837	46771.67
668.023	46390.75
668.21	46738.9
668.396	46419.42
668.582	47193.55
668.768	46366.17
668.954	46544.34
669.14	45888.99
669.327	45544.93
669.513	45749.73
669.699	46038.5
669.885	45721.06
670.071	46921.17
670.257	46843.35
670.443	46673.37
670.629	46194.14
670.815	46392.79
671.001	45577.7
671.187	46439.9
671.373	45696.48
671.559	46028.26
671.744	45626.85
671.93	45702.63
672.116	45942.24
672.302	45686.24
672.488	45563.37
672.674	45929.95
672.859	45483.5
673.045	46192.09
673.231	45839.84
673.417	46185.95
673.602	46073.31
673.788	46493.14
673.974	46337.5
674.159	46464.47
674.345	46257.63
674.531	46544.34
674.716	45282.79
674.902	46003.68
675.087	44971.5
675.273	45819.36
675.459	45579.75
675.644	46087.65
675.83	45209.07
676.015	45774.31
676.2	45690.34
676.386	46018.02
676.571	45727.2
676.757	46675.41
676.942	45684.2
677.128	47117.77
677.313	46497.24
677.498	47734.21
677.684	46642.65
677.869	47406.54
678.054	46169.57
678.24	46169.57
678.425	45495.78
678.61	45563.37
678.795	44791.28
678.98	45901.28
679.166	44674.55
679.351	45413.86
679.536	45178.35
679.721	45628.9
679.906	44910.06
680.091	45553.13
680.276	45374.95
680.461	45587.94
680.647	45297.13
680.832	45917.66
681.017	45499.88
681.202	45829.6
681.387	45123.05
681.572	45463.02
681.756	45323.75
681.941	45389.29
682.126	45143.53
682.311	45020.65
682.496	44637.68
682.681	45020.65
682.866	44989.94
683.051	44582.39
683.235	44156.41
683.42	45174.25
683.605	44770.8
683.79	44932.59
683.974	44664.31
684.159	45202.92
684.344	45155.82
684.529	45319.66
684.713	44375.54
684.898	44590.58
685.083	44723.7
685.267	44187.13
685.452	44279.29
685.636	43789.83
685.821	43628.04
686.005	44006.91
686.19	43435.53
686.375	43718.15
686.559	43580.93
686.744	43939.33
686.928	43456.01
687.112	44473.85
687.297	44043.77
687.481	44598.77
687.666	44492.28
687.85	44629.49
688.034	44678.64
688.219	45299.18
688.403	44692.98
688.587	45143.53
688.772	44154.36
688.956	44713.46
689.14	44492.28
689.324	44858.87
689.509	44285.43
689.693	44926.45
689.877	44803.57
690.061	44631.54
690.245	44070.4
690.43	44361.21
690.614	44348.92
690.798	44598.77
690.982	44219.9
691.166	44670.45
691.35	43935.23
691.534	44523
691.718	43832.83
691.902	44486.13
692.086	43988.48
692.27	43527.69
692.454	43140.62
692.638	43605.51
692.822	43589.12
693.006	43546.12
693.19	43433.48
693.373	44244.47
693.557	43640.32
693.741	43929.09
693.925	43091.47
694.109	43406.86
694.293	43058.7
694.476	43240.97
694.66	42673.68
694.844	43263.5
695.027	42305.05
695.211	43380.23
695.395	42610.2
695.578	43589.12
695.762	42581.52
695.946	42966.54
696.129	42059.29
696.313	42460.69
696.497	42360.34
696.68	43009.55
696.864	41694.75
697.047	41893.41
697.231	41637.41
697.414	41911.84
697.598	41442.85
697.781	42274.33
697.965	41956.89
698.148	41754.14
698.331	41516.58
698.515	42124.83
698.698	41289.26
698.881	42368.54
699.065	41330.21
699.248	42047
699.431	41625.12
699.615	42173.98
699.798	41668.13
699.981	42239.51
700.165	41764.38
700.348	41788.96
700.531	41039.4
700.714	41391.65
700.897	40607.28
701.08	41270.82
701.264	40379.96
701.447	40934.96
701.63	41066.03
701.813	41590.31
701.996	40435.25
702.179	40955.44
702.362	40881.71
702.545	41487.91
702.728	41975.33
702.911	41868.83
703.094	41487.91
703.277	42018.33
703.46	40281.65
703.643	40926.77
703.826	39763.52
704.009	41301.54
704.191	40134.2
704.374	39691.84
704.557	39849.53
704.74	40316.47
704.923	40099.39
705.106	39958.08
705.288	39337.54
705.471	39689.79
705.654	39726.66
705.837	39980.6
706.019	39708.22
706.202	39872.06
706.385	39829.05
706.567	40336.95
706.75	39841.34
706.932	40134.2
707.115	39233.09
707.298	39245.38
707.48	38667.86
707.663	38270.55
707.845	37697.12
708.028	38370.9
708.21	37926.49
708.393	38698.58
708.575	37531.23
708.758	38207.06
708.94	37940.83
709.123	38006.36
709.305	37858.91
709.487	38155.86
709.67	37555.81
709.852	38241.88
710.034	37981.79
710.217	38567.51
710.399	38274.65
710.581	38491.73
710.764	37830.24
710.946	38254.17
711.128	37201.51
711.31	38075.99
711.492	36877.93
711.675	37348.96
711.857	36947.56
712.039	36941.42
712.221	36945.51
712.403	37037.67
712.585	36710
712.767	37244.52
712.949	36456.05
713.131	36972.14
713.314	36550.26
713.496	36650.61
713.678	36306.55
713.86	36849.26
714.041	36996.71
714.223	37092.97
714.405	36892.27
714.587	36984.43
714.769	36410.99
714.951	37230.18
715.133	36394.61
715.315	36666.99
715.497	35860.09
715.678	36423.28
715.86	36238.96
716.042	36494.96
716.224	35618.43
716.406	36425.33
716.587	36138.61
716.769	35718.78
716.951	35501.7
717.132	35710.59
717.314	35348.1
717.496	35315.33
717.677	35587.71
717.859	35837.56
718.041	35430.02
718.222	35784.32
718.404	34725.52
718.585	35462.78
718.767	34530.96
718.948	35118.73
719.13	34743.95
719.311	34696.84
719.493	34363.03
719.674	34348.69
719.856	34477.71
720.037	34317.97
720.219	33959.58
720.4	34326.16
720.581	34166.42
720.763	34281.11
720.944	33842.84
721.125	33756.83
721.307	33564.32
721.488	34129.56
721.669	33908.38
721.85	34320.02
722.032	33836.7
722.213	33810.07
722.394	33375.9
722.575	33478.3
722.756	33283.75
722.938	33119.91
723.119	32403.12
723.3	32294.58
723.481	31989.43
723.662	32749.23
723.843	31952.57
724.024	32618.16
724.205	32566.96
724.386	32511.66
724.567	31788.73
724.748	32247.47
724.929	32218.8
725.11	32933.54
725.291	32333.49
725.472	32765.61
725.653	32157.36
725.834	32822.95
726.015	32212.66
726.196	32505.52
726.377	31696.57
726.557	31573.69
726.738	30713.54
726.919	31385.28
727.1	30942.92
727.281	30783.18
727.461	30680.78
727.642	30562
727.823	30088.91
728.004	30408.4
728.184	29828.82
728.365	30555.85
728.546	30316.24
728.726	30342.86
728.907	30283.47
729.087	30918.34
729.268	30142.16
729.449	30527.18
729.629	29910.74
729.81	30664.39
729.99	30226.13
730.171	30768.84
730.351	29730.52
730.532	30162.64
730.712	29677.27
730.893	29617.88
731.073	29257.44
731.253	29325.02
731.434	29112.03
731.614	28913.38
731.795	28102.38
731.975	29372.13
732.155	28255.98
732.336	29001.44
732.516	28684.01
732.696	28700.39
732.876	28552.94
733.057	28985.06
733.237	28520.17
733.417	28802.79
733.597	28272.37
733.778	28325.61
733.958	28337.9
734.138	28514.03
734.318	27772.66
734.498	27936.5
734.678	27418.36
734.858	27336.44
735.038	27125.5
735.218	27404.03
735.398	26947.33
735.579	26879.75
735.759	26932.99
735.939	26834.69
736.119	26636.04
736.298	26896.13
736.478	26646.28
736.658	26588.94
736.838	26208.01
737.018	26322.7
737.198	25968.4
737.378	26005.26
737.558	25771.8
737.738	26238.73
737.917	25825.04
738.097	25851.67
738.277	25663.25
738.457	25782.04
738.637	25288.48
738.816	25489.18
738.996	24928.03
739.176	25407.26
739.355	24960.8
739.535	25069.34
739.715	24930.08
739.894	25075.49
740.074	25181.98
740.254	24725.28
740.433	24674.09
740.613	25313.05
740.792	24807.2
740.972	25050.91
741.151	24622.89
741.331	25005.86
741.51	24735.52
741.69	24917.79
741.869	23910.19
742.049	24833.83
742.228	23928.62
742.408	23846.71
742.587	23856.95
742.766	23789.36
742.946	23445.3
743.125	23529.27
743.305	23111.48
743.484	23248.7
743.663	22918.98
743.842	23344.95
744.022	22560.58
744.201	23000.89
744.38	22961.98
744.56	22873.92
744.739	22716.23
744.918	23058.24
745.097	22667.08
745.276	22839.11
745.455	22323.02
745.635	22327.11
745.814	22392.65
745.993	22400.84
746.172	22132.56
746.351	22697.8
746.53	22288.2
746.709	22585.16
746.888	22144.84
747.067	22413.13
747.246	22347.59
747.425	22540.1
747.604	21727.06
747.783	21925.71
747.962	21616.47
748.141	21981.01
748.32	21854.03
748.499	22210.38
748.677	22093.64
748.856	22048.59
749.035	22116.17
749.214	22701.89
749.393	22501.19
749.572	22507.33
749.75	22105.93
749.929	22329.16
750.108	22077.26
750.287	22568.77
750.465	22277.96
750.644	22382.41
750.823	22495.05
751.001	22667.08
751.18	22024.01
751.359	22380.36
751.537	22247.24
751.716	22605.64
751.894	22202.19
752.073	22206.28
752.251	21917.52
752.43	21714.77
752.609	21741.39
752.787	21983.05
752.966	21778.26
753.144	22380.36
753.322	21925.71
753.501	21718.87
753.679	21808.98
753.858	22191.95
754.036	21860.18
754.215	22058.83
754.393	21653.33
754.571	21894.99
754.75	21655.38
754.928	21888.85
755.106	21679.95
755.284	21753.68
755.463	21743.44
755.641	21905.23
755.819	21673.81
755.997	21391.19
756.176	21630.8
756.354	21729.11
756.532	20875.1
756.71	21782.35
756.888	21073.76
757.066	21559.12
757.245	21124.96
757.423	21401.43
757.601	21196.63
757.779	21294.94
757.957	21120.86
758.135	21335.9
758.313	21303.13
758.491	21178.2
758.669	20840.29
758.847	21012.32
759.025	20379.49
759.203	20565.86
759.381	19916.65
759.559	20381.54
759.737	20592.48
759.915	20696.93
760.092	20330.34
760.27	20563.81
760.448	20070.25
760.626	20338.54
760.804	19367.8
760.981	19689.33
761.159	19505.01
761.337	19945.33
761.515	19468.15
761.692	19761.01
761.87	19445.62
762.048	19545.97
762.226	19212.15
762.403	19392.37
762.581	19339.13
762.759	19558.26
762.936	18999.16
763.114	19076.99
763.291	18362.25
763.469	18595.71
763.647	18319.24
763.824	18333.57
764.002	17786.77
764.179	18120.59
764.357	17815.44
764.534	17903.5
764.712	17495.95
764.889	17813.39
765.066	17065.88
765.244	16959.39
765.421	16791.45
765.599	16687.01
765.776	16764.83
765.953	16566.18
766.131	16349.09
766.308	16830.36
766.485	16168.87
766.663	16318.37
766.84	16166.82
767.017	16652.19
767.194	16291.75
767.372	16105.38
767.549	15880.11
767.726	15720.37
767.903	15269.81
768.081	15265.72
768.258	14860.22
768.435	14897.08
768.612	14712.77
768.789	14813.12
768.966	14499.78
769.143	14647.23
769.32	14380.99
769.497	14409.67
769.674	14155.72
769.851	14194.63
770.028	13932.49
770.205	13973.45
770.382	13801.42
770.559	13705.16
770.736	13504.46
770.913	13651.92
771.09	13326.29
771.267	13232.08
771.444	13129.69
771.621	13242.32
771.798	12754.91
771.975	12744.67
772.151	12556.25
772.328	12599.26
772.505	12204
772.682	12050.41
772.859	11800.55
773.035	11882.47
773.212	11696.11
773.389	11728.87
773.565	11425.78
773.742	11384.82
773.919	11042.81
774.096	11263.99
774.272	11040.76
774.449	10881.02
774.625	10870.78
774.802	10737.66
774.979	10465.28
775.155	10641.4
775.332	10360.83
775.508	10399.74
775.685	10020.87
775.861	10070.02
776.038	9836.55
776.214	10031.11
776.391	9873.41
776.567	9998.34
776.744	9961.48
776.92	9881.61
777.096	9472.01
777.273	9375.76
777.449	9320.46
777.626	9007.12
777.802	9076.76
777.978	9046.04
778.155	8771.61
778.331	8871.96
778.507	8835.09
778.683	8779.8
778.86	8656.92
779.036	8699.93
779.212	8372.25
779.388	8235.04
779.565	8327.2
779.741	8153.12
779.917	8222.75
780.093	8044.58
780.269	7911.46
780.445	7954.47
780.621	7874.6
780.797	7753.77
780.974	7426.09
781.15	7671.85
781.326	7585.83
781.502	7409.71
781.678	7458.86
781.854	7456.81
782.03	7110.71
782.206	7307.31
782.382	7213.1
782.558	7020.59
782.733	7057.46
782.909	6887.48
783.085	6756.41
783.261	7004.21
783.437	6600.76
783.613	6737.97
783.789	6770.74
783.965	6680.63
784.14	6760.5
784.316	6760.5
784.492	6426.68
784.668	6660.15
784.843	6467.64
785.019	6410.3
785.195	6352.96
785.371	6320.19
785.546	6182.98
785.722	6156.35
785.898	6058.05
786.073	6051.91
786.249	5920.84
786.424	5902.4
786.6	5724.23
786.776	5599.3
786.951	5521.48
787.127	5548.1
787.302	5550.15
787.478	5361.74
787.653	5509.19
787.829	5345.36
788.004	5224.53
788.18	5191.76
788.355	5132.37
788.531	5044.3
788.706	5113.94
788.881	5050.45
789.057	4952.15
789.232	4872.28
789.408	4905.04
789.583	4927.57
789.758	4806.74
789.934	4841.56
790.109	4950.1
790.284	4616.28
790.459	4694.1
790.635	4696.15
790.81	4517.98
790.985	4608.09
791.16	4460.63
791.336	4384.86
791.511	4268.12
791.686	4417.63
791.861	4372.57
792.036	4102.24
792.211	4098.14
792.387	4214.88
792.562	4323.42
792.737	4200.54
792.912	3960.93
793.087	3866.72
793.262	3932.26
793.437	3993.7
793.612	3997.79
793.787	3770.47
793.962	3692.65
794.137	3635.3
794.312	3629.16
794.487	3844.19
794.662	3600.49
794.837	3692.65
795.011	3530.86
795.186	3625.06
795.361	3588.2
795.536	3641.45
795.711	3600.49
795.886	3502.18
796.06	3623.01
796.235	3436.65
796.41	3387.5
796.585	3381.35
796.76	3324.01
796.934	3346.54
797.109	3266.67
797.284	3354.73
797.458	3350.63
797.633	3194.99
797.808	3174.51
797.982	3223.66
798.157	3141.74
798.332	3131.5
798.506	3029.1
798.681	3125.36
798.855	3004.53
799.03	2963.57
799.204	2871.41
799.379	3029.1
799.553	2945.14
799.728	3045.49
799.902	2863.22
800.077	3027.06
800.251	2922.61
800.426	2863.22
800.6	2805.87
800.775	2979.95
800.949	2726
801.123	2695.28
801.298	2775.16
801.472	2816.11
801.647	2785.4
801.821	2791.54
801.995	2685.04
802.169	2707.57
802.344	2629.75
802.518	2695.28
802.692	2601.08
802.867	2633.85
803.041	2699.38
803.215	2596.98
803.389	2625.65
803.563	2707.57
803.737	2666.61
803.912	2644.09
804.086	2596.98
804.26	2572.41
804.434	2500.73
804.608	2652.28
804.782	2541.69
804.956	2494.58
805.13	2510.97
805.304	2535.54
805.478	2461.82
805.652	2465.91
805.826	2572.41
806	2386.04
806.174	2461.82
806.348	2455.67
806.522	2410.62
806.696	2402.42
806.87	2404.47
807.044	2306.17
807.218	2322.55
807.392	2390.14
807.566	2443.38
807.739	2349.18
807.913	2281.59
808.087	2287.74
808.261	2429.05
808.435	2379.9
808.608	2238.59
808.782	2322.55
808.956	2281.59
809.13	2332.79
809.303	2351.23
809.477	2398.33
809.651	2273.4
809.824	2300.03
809.998	2261.12
810.172	2310.27
810.345	2224.25
810.519	2429.05
810.692	2281.59
810.866	2379.9
811.04	2291.83
811.213	2386.04
811.387	2392.19
811.56	2334.84
811.734	2263.16
811.907	2437.24
812.081	2248.83
812.254	2281.59
812.428	2257.02
812.601	2134.14
812.774	2353.27
812.948	2340.99
813.121	2242.68
813.295	2338.94
813.468	2336.89
813.641	2310.27
813.815	2431.1
813.988	2332.79
814.161	2252.92
814.335	2340.99
814.508	2191.48
814.681	2259.07
814.854	2250.88
815.028	2316.41
815.201	2158.72
815.374	2293.88
815.547	2232.44
815.72	2160.76
815.894	2160.76
816.067	2295.93
816.24	2302.07
816.413	2216.06
816.586	2230.4
816.759	2128
816.932	2166.91
817.105	2154.62
817.278	2125.95
817.452	2138.24
817.625	2211.96
817.798	2109.57
817.971	2242.68
818.144	2119.81
818.317	2113.66
818.49	2242.68
818.662	2232.44
818.835	2152.57
819.008	2177.15
819.181	2283.64
819.354	2171
819.527	2273.4
819.7	2267.26
819.873	2146.43
820.046	2070.65
820.218	2257.02
820.391	2076.8
820.564	2148.48
820.737	2183.29
820.909	2240.64
821.082	2252.92
821.255	2209.92
821.428	2185.34
821.6	2150.52
821.773	2119.81
821.946	2220.16
822.118	2003.07
822.291	2187.39
822.464	2125.95
822.636	2207.87
822.809	2226.3
822.982	2222.2
823.154	2111.61
823.327	2156.67
823.499	2181.24
823.672	2128
823.844	2017.41
824.017	2125.95
824.189	2021.5
824.362	2175.1
824.534	2044.03
824.707	2101.37
824.879	2068.61
825.052	2048.13
825.224	2134.14
825.396	2080.89
825.569	2138.24
825.741	2211.96
825.914	2125.95
826.086	2142.33
826.258	2084.99
826.431	2189.44
826.603	2154.62
826.775	2011.26
826.947	1990.78
827.12	1986.69
827.292	2060.41
827.464	2119.81
827.636	2058.37
827.809	2218.11
827.981	2031.74
828.153	2050.17
828.325	2109.57
828.497	2031.74
828.669	2097.28
828.842	1955.97
829.014	2095.23
829.186	1962.11
829.358	1998.98
829.53	2134.14
829.702	1980.54
829.874	2070.65
830.046	1986.69
830.218	1970.3
830.39	1978.5
830.562	2068.61
830.734	2027.65
830.906	2005.12
831.078	1994.88
831.25	2095.23
831.422	2035.84
831.594	2044.03
831.766	1976.45
831.937	1966.21
832.109	1986.69
832.281	1990.78
832.453	1884.29
832.625	1962.11
832.797	1794.18
832.968	1880.19
833.14	1994.88
833.312	1962.11
833.484	1761.41
833.655	1888.38
833.827	1781.89
833.999	1904.77
834.171	1939.58
834.342	1943.68
834.514	1859.71
834.686	1970.3
834.857	1949.82
835.029	1886.34
835.2	1902.72
835.372	1804.42
835.544	1806.47
835.715	1822.85
835.887	1800.32
836.058	1781.89
836.23	1865.86
836.401	1861.76
836.573	1865.86
836.744	1974.4
836.916	1923.2
837.087	1697.92
837.259	1761.41
837.43	1841.28
837.602	1790.08
837.773	1855.62
837.945	1702.02
838.116	1773.7
838.287	1704.07
838.459	1732.74
838.63	1796.23
838.801	1677.44
838.973	1742.98
839.144	1785.99
839.315	1644.68
839.487	1833.09
839.658	1806.47
839.829	1874.05
840	1753.22
840.172	1724.55
840.343	1859.71
840.514	1740.93
840.685	1620.1
840.856	1773.7
841.027	1767.55
841.199	1712.26
841.37	1800.32
841.541	1722.5
841.712	1716.36
841.883	1704.07
842.054	1650.82
842.225	1609.86
842.396	1689.73
842.567	1695.88
842.738	1704.07
842.909	1622.15
843.08	1624.2
843.251	1624.2
843.422	1538.18
843.593	1654.92
843.764	1564.81
843.935	1626.24
844.106	1620.1
844.277	1601.67
844.448	1486.98
844.619	1620.1
844.79	1609.86
844.96	1544.33
845.131	1470.6
845.302	1544.33
845.473	1585.29
845.644	1486.98
845.814	1529.99
845.985	1570.95
846.156	1519.75
846.327	1491.08
846.497	1480.84
846.668	1392.78
846.839	1407.11
847.01	1398.92
847.18	1441.93
847.351	1321.1
847.522	1392.78
847.692	1376.39
847.863	1323.15
848.033	1437.83
848.204	1310.86
848.375	1435.78
848.545	1314.95
848.716	1355.91
848.886	1259.66
849.057	1314.95
849.227	1314.95
849.398	1374.34
849.568	1323.15
849.739	1261.71
849.909	1323.15
850.08	1347.72
850.25	1243.27
850.421	1310.86
850.591	1331.34
850.761	1308.81
850.932	1370.25
851.102	1360.01
851.272	1282.19
851.443	1290.38
851.613	1243.27
851.783	1208.46
851.954	1163.4
852.124	1204.36
852.294	1169.55
852.465	1171.6
852.635	1190.03
852.805	1093.77
852.975	1169.55
853.145	1183.88
853.316	1230.99
853.486	1241.23
853.656	1226.89
853.826	1081.49
853.996	1118.35
854.166	1179.79
854.337	1173.64
854.507	1093.77
854.677	1175.69
854.847	1192.08
855.017	1104.01
855.187	1040.53
855.357	1093.77
855.527	1056.91
855.697	1138.83
855.867	1061.01
856.037	1024.14
856.207	987.28
856.377	1022.09
856.547	1114.25
856.717	1020.05
856.887	1022.09
857.057	1061.01
857.227	934.03
857.397	880.78
857.566	981.13
857.736	1077.39
857.906	1009.81
858.076	972.94
858.246	1075.34
858.416	872.59
858.585	958.61
858.755	948.37
858.925	929.94
859.095	911.5
859.264	938.13
859.434	1011.85
859.604	974.99
859.774	921.74
859.943	860.3
860.113	956.56
860.283	923.79
860.452	929.94
860.622	891.02
860.791	882.83
860.961	907.41
861.131	897.17
861.3	874.64
861.47	938.13
861.639	934.03
861.809	893.07
861.978	905.36
862.148	774.29
862.318	909.46
862.487	872.59
862.657	864.4
862.826	843.92
862.995	798.87
863.165	860.3
863.334	807.06
863.504	819.35
863.673	813.2
863.843	870.54
864.012	807.06
864.181	852.11
864.351	817.3
864.52	790.67
864.689	766.1
864.859	800.91
865.028	825.49
865.197	778.39
865.366	823.44
865.536	848.02
865.705	831.63
865.874	772.24
866.043	708.75
866.213	833.68
866.382	817.3
866.551	774.29
866.72	745.62
866.889	716.95
867.059	782.48
867.228	778.39
867.397	776.34
867.566	684.18
867.735	827.54
867.904	741.52
868.073	741.52
868.242	741.52
868.411	766.1
868.58	807.06
868.749	762
868.918	762
869.087	708.75
869.256	755.86
869.425	735.38
869.594	723.09
869.763	782.48
869.932	741.52
870.101	651.41
870.27	725.14
870.439	782.48
870.608	725.14
870.777	727.19
870.945	678.04
871.114	637.08
871.283	741.52
871.452	659.6
871.621	694.42
871.789	602.26
871.958	514.2
872.127	686.23
872.296	622.74
872.464	594.07
872.633	635.03
872.802	688.28
872.971	743.57
873.139	577.68
873.308	618.64
873.477	653.46
873.645	624.79
873.814	528.53
873.983	628.88
874.151	675.99
874.32	602.26
874.488	620.69
874.657	680.08
874.826	598.16
874.994	604.31
875.163	700.56
875.331	727.19
875.5	581.78
875.668	643.22
875.837	651.41
876.005	565.4
876.174	694.42
876.342	573.59
876.51	530.58
876.679	610.45
876.847	567.44
877.016	651.41
877.184	598.16
877.352	561.3
877.521	606.36
877.689	596.12
877.857	602.26
878.026	503.96
878.194	635.03
878.362	661.65
878.531	583.83
878.699	577.68
878.867	491.67
879.036	524.44
879.204	622.74
879.372	481.43
879.54	536.73
879.708	594.07
879.877	608.4
880.045	581.78
880.213	473.24
880.381	417.94
880.549	506.01
880.717	557.21
880.885	577.68
881.054	569.49
881.222	512.15
881.39	475.29
881.558	432.28
881.726	520.34
881.894	551.06
882.062	508.05
882.23	555.16
882.398	516.25
882.566	495.77
882.734	506.01
882.902	569.49
883.07	546.97
883.238	626.84
883.406	503.96
883.574	618.64
883.741	526.49
883.909	637.08
884.077	481.43
884.245	497.81
884.413	520.34
884.581	479.38
884.749	506.01
884.916	553.11
885.084	499.86
885.252	549.01
885.42	524.44
885.587	544.92
885.755	585.88
885.923	516.25
886.091	499.86
886.258	499.86
886.426	637.08
886.594	483.48
886.761	520.34
886.929	565.4
887.097	524.44
887.264	551.06
887.432	596.12
887.6	594.07
887.767	524.44
887.935	446.61
888.102	565.4
888.27	495.77
888.438	575.64
888.605	493.72
888.773	508.05
888.94	536.73
889.108	553.11
889.275	430.23
889.443	454.81
889.61	549.01
889.778	577.68
889.945	528.53
890.112	497.81
890.28	471.19
890.447	577.68
890.615	544.92
890.782	503.96
890.949	499.86
891.117	540.82
891.284	512.15
891.452	587.92
891.619	438.42
891.786	475.29
891.953	540.82
892.121	514.2
892.288	391.32
892.455	477.33
892.623	358.55
892.79	512.15
892.957	432.28
893.124	465.05
893.291	479.38
893.459	528.53
893.626	561.3
893.793	540.82
893.96	450.71
894.127	491.67
894.294	458.9
894.461	460.95
894.629	506.01
894.796	471.19
894.963	522.39
895.13	385.18
895.297	501.91
895.464	446.61
895.631	485.53
895.798	536.73
895.965	608.4
896.132	460.95
896.299	506.01
896.466	503.96
896.633	422.04
896.8	536.73
896.967	635.03
897.134	487.57
897.301	436.37
897.467	469.14
897.634	444.57
897.801	540.82
897.968	454.81
898.135	446.61
898.302	473.24
898.469	495.77
898.635	368.79
898.802	495.77
898.969	442.52
899.136	424.09
899.303	520.34
