Data from light_USB4E013581_00007.txt Node
Date: Wed May 08 15:04:40 EDT 2019
User: dh1006
Spectrometer: USB4E01358
Autoset integration time: false
Trigger mode: 4
Integration Time (sec): 2.925000E-2
Scans to average: 1
Electric dark correction enabled: true
Nonlinearity correction enabled: false
Boxcar width: 0
Stray light correction enabled: false
XAxis mode: Wavelengths
Stop averaging: false
Number of Pixels in Spectrum: 3648
>>>>>Begin Spectral Data<<<<<
176.727	-8.19
176.966	-8.19
177.205	-8.19
177.444	-55.3
177.683	-102.4
177.922	45.06
178.161	59.39
178.4	-16.38
178.638	24.58
178.877	20.48
179.116	16.38
179.355	22.53
179.593	10.24
179.832	2.05
180.071	12.29
180.309	-18.43
180.548	-6.14
180.786	-6.14
181.025	77.82
181.263	86.01
181.502	32.77
181.74	45.06
181.979	24.58
182.217	67.58
182.456	157.69
182.694	75.77
182.932	106.49
183.17	59.39
183.409	65.53
183.647	65.53
183.885	69.63
184.123	49.15
184.361	53.25
184.6	102.4
184.838	51.2
185.076	67.58
185.314	-8.19
185.552	65.53
185.79	104.45
186.028	65.53
186.266	114.69
186.503	49.15
186.741	69.63
186.979	65.53
187.217	59.39
187.455	118.78
187.693	40.96
187.93	118.78
188.168	73.73
188.406	94.21
188.643	83.97
188.881	57.34
189.119	151.55
189.356	81.92
189.594	59.39
189.831	106.49
190.069	59.39
190.306	75.77
190.543	139.26
190.781	55.3
191.018	32.77
191.256	122.88
191.493	90.11
191.73	6.14
191.967	79.87
192.205	88.06
192.442	69.63
192.679	73.73
192.916	75.77
193.153	126.97
193.39	79.87
193.628	126.97
193.865	110.59
194.102	34.82
194.339	108.54
194.576	104.45
194.813	47.1
195.049	59.39
195.286	108.54
195.523	4.1
195.76	98.3
195.997	153.6
196.234	75.77
196.47	49.15
196.707	118.78
196.944	63.49
197.18	57.34
197.417	73.73
197.654	83.97
197.89	69.63
198.127	131.07
198.363	102.4
198.6	57.34
198.836	139.26
199.073	126.97
199.309	81.92
199.546	4.1
199.782	57.34
200.018	98.3
200.255	94.21
200.491	32.77
200.727	47.1
200.963	174.08
201.199	131.07
201.436	51.2
201.672	73.73
201.908	49.15
202.144	77.82
202.38	75.77
202.616	49.15
202.852	77.82
203.088	53.25
203.324	135.17
203.56	114.69
203.796	83.97
204.032	45.06
204.268	71.68
204.503	75.77
204.739	45.06
204.975	92.16
205.211	98.3
205.446	90.11
205.682	114.69
205.918	122.88
206.153	124.93
206.389	-8.19
206.625	38.91
206.86	59.39
207.096	75.77
207.331	49.15
207.567	86.01
207.802	96.25
208.037	90.11
208.273	86.01
208.508	16.38
208.744	61.44
208.979	61.44
209.214	51.2
209.449	49.15
209.685	45.06
209.92	40.96
210.155	75.77
210.39	147.45
210.625	53.25
210.86	145.41
211.095	38.91
211.33	24.58
211.565	73.73
211.8	16.38
212.035	24.58
212.27	57.34
212.505	176.13
212.74	55.3
212.975	96.25
213.21	106.49
213.444	61.44
213.679	81.92
213.914	18.43
214.149	18.43
214.383	67.58
214.618	59.39
214.853	16.38
215.087	65.53
215.322	77.82
215.556	40.96
215.791	65.53
216.025	30.72
216.26	90.11
216.494	59.39
216.729	57.34
216.963	92.16
217.197	86.01
217.432	114.69
217.666	-28.67
217.9	131.07
218.135	81.92
218.369	149.5
218.603	75.77
218.837	114.69
219.071	43.01
219.306	67.58
219.54	81.92
219.774	98.3
220.008	112.64
220.242	96.25
220.476	36.86
220.71	79.87
220.944	22.53
221.178	61.44
221.411	77.82
221.645	16.38
221.879	83.97
222.113	26.62
222.347	16.38
222.58	81.92
222.814	106.49
223.048	98.3
223.281	73.73
223.515	126.97
223.749	57.34
223.982	83.97
224.216	26.62
224.449	57.34
224.683	69.63
224.916	92.16
225.15	141.31
225.383	67.58
225.617	116.73
225.85	106.49
226.083	32.77
226.317	47.1
226.55	-4.1
226.783	49.15
227.016	96.25
227.25	45.06
227.483	49.15
227.716	67.58
227.949	20.48
228.182	45.06
228.415	73.73
228.648	12.29
228.881	79.87
229.114	12.29
229.347	59.39
229.58	69.63
229.813	81.92
230.046	141.31
230.279	88.06
230.512	65.53
230.745	124.93
230.977	65.53
231.21	155.65
231.443	104.45
231.675	53.25
231.908	73.73
232.141	61.44
232.373	43.01
232.606	57.34
232.839	92.16
233.071	92.16
233.304	77.82
233.536	98.3
233.769	34.82
234.001	122.88
234.233	73.73
234.466	135.17
234.698	81.92
234.93	133.12
235.163	114.69
235.395	100.35
235.627	59.39
235.86	129.02
236.092	81.92
236.324	73.73
236.556	135.17
236.788	90.11
237.02	143.36
237.252	73.73
237.484	159.74
237.716	147.45
237.948	131.07
238.18	45.06
238.412	122.88
238.644	110.59
238.876	98.3
239.108	-12.29
239.34	24.58
239.571	32.77
239.803	104.45
240.035	-12.29
240.267	102.4
240.498	67.58
240.73	100.35
240.962	51.2
241.193	65.53
241.425	77.82
241.656	57.34
241.888	57.34
242.119	75.77
242.351	116.73
242.582	151.55
242.814	90.11
243.045	38.91
243.277	73.73
243.508	135.17
243.739	81.92
243.971	98.3
244.202	90.11
244.433	40.96
244.664	65.53
244.896	65.53
245.127	94.21
245.358	151.55
245.589	67.58
245.82	90.11
246.051	67.58
246.282	59.39
246.513	94.21
246.744	67.58
246.975	110.59
247.206	106.49
247.437	100.35
247.668	135.17
247.899	-14.34
248.129	100.35
248.36	8.19
248.591	86.01
248.822	32.77
249.052	86.01
249.283	59.39
249.514	69.63
249.744	94.21
249.975	122.88
250.206	90.11
250.436	57.34
250.667	90.11
250.897	49.15
251.128	81.92
251.358	67.58
251.589	98.3
251.819	47.1
252.049	24.58
252.28	83.97
252.51	57.34
252.74	83.97
252.971	83.97
253.201	98.3
253.431	67.58
253.661	36.86
253.891	114.69
254.121	86.01
254.352	102.4
254.582	65.53
254.812	24.58
255.042	112.64
255.272	81.92
255.502	24.58
255.732	114.69
255.962	133.12
256.192	92.16
256.421	81.92
256.651	77.82
256.881	32.77
257.111	139.26
257.341	81.92
257.57	18.43
257.8	-24.58
258.03	24.58
258.259	30.72
258.489	135.17
258.719	100.35
258.948	108.54
259.178	126.97
259.407	116.73
259.637	79.87
259.866	69.63
260.096	155.65
260.325	106.49
260.555	102.4
260.784	90.11
261.013	124.93
261.243	90.11
261.472	69.63
261.701	116.73
261.931	71.68
262.16	81.92
262.389	135.17
262.618	51.2
262.847	153.6
263.076	53.25
263.305	124.93
263.535	77.82
263.764	98.3
263.993	49.15
264.222	24.58
264.451	73.73
264.679	69.63
264.908	-22.53
265.137	131.07
265.366	81.92
265.595	34.82
265.824	90.11
266.053	106.49
266.281	126.97
266.51	59.39
266.739	12.29
266.967	120.83
267.196	86.01
267.425	69.63
267.653	40.96
267.882	51.2
268.11	12.29
268.339	40.96
268.567	108.54
268.796	53.25
269.024	100.35
269.253	100.35
269.481	77.82
269.709	96.25
269.938	110.59
270.166	131.07
270.394	83.97
270.623	92.16
270.851	98.3
271.079	57.34
271.307	110.59
271.535	131.07
271.764	71.68
271.992	106.49
272.22	26.62
272.448	106.49
272.676	118.78
272.904	122.88
273.132	65.53
273.36	106.49
273.588	77.82
273.816	112.64
274.043	104.45
274.271	49.15
274.499	61.44
274.727	71.68
274.955	71.68
275.182	106.49
275.41	67.58
275.638	86.01
275.866	45.06
276.093	57.34
276.321	104.45
276.548	57.34
276.776	24.58
277.003	81.92
277.231	57.34
277.458	151.55
277.686	143.36
277.913	110.59
278.141	20.48
278.368	90.11
278.595	61.44
278.823	32.77
279.05	161.79
279.277	122.88
279.505	28.67
279.732	182.27
279.959	122.88
280.186	139.26
280.413	116.73
280.641	141.31
280.868	94.21
281.095	26.62
281.322	114.69
281.549	141.31
281.776	122.88
282.003	30.72
282.23	104.45
282.457	38.91
282.683	65.53
282.91	83.97
283.137	75.77
283.364	86.01
283.591	65.53
283.818	8.19
284.044	53.25
284.271	98.3
284.498	75.77
284.724	98.3
284.951	81.92
285.178	81.92
285.404	98.3
285.631	49.15
285.857	-22.53
286.084	94.21
286.31	139.26
286.537	116.73
286.763	34.82
286.99	-32.77
287.216	81.92
287.442	118.78
287.669	88.06
287.895	90.11
288.121	51.2
288.347	151.55
288.574	86.01
288.8	83.97
289.026	157.69
289.252	98.3
289.478	90.11
289.704	90.11
289.931	49.15
290.157	86.01
290.383	90.11
290.609	141.31
290.835	139.26
291.06	77.82
291.286	77.82
291.512	137.21
291.738	81.92
291.964	149.5
292.19	-14.34
292.416	51.2
292.641	79.87
292.867	63.49
293.093	147.45
293.319	100.35
293.544	90.11
293.77	86.01
293.995	96.25
294.221	92.16
294.447	53.25
294.672	86.01
294.898	59.39
295.123	96.25
295.349	112.64
295.574	124.93
295.799	49.15
296.025	36.86
296.25	75.77
296.476	-12.29
296.701	124.93
296.926	88.06
297.151	124.93
297.377	40.96
297.602	51.2
297.827	106.49
298.052	81.92
298.277	92.16
298.502	69.63
298.727	81.92
298.953	106.49
299.178	120.83
299.403	88.06
299.628	151.55
299.852	114.69
300.077	106.49
300.302	24.58
300.527	75.77
300.752	215.04
300.977	194.56
301.202	98.3
301.426	92.16
301.651	98.3
301.876	73.73
302.101	49.15
302.325	94.21
302.55	104.45
302.775	24.58
302.999	67.58
303.224	69.63
303.448	79.87
303.673	69.63
303.897	45.06
304.122	73.73
304.346	79.87
304.571	69.63
304.795	169.98
305.019	188.41
305.244	4.1
305.468	151.55
305.692	49.15
305.917	110.59
306.141	49.15
306.365	114.69
306.589	65.53
306.813	126.97
307.038	12.29
307.262	155.65
307.486	106.49
307.71	104.45
307.934	77.82
308.158	106.49
308.382	75.77
308.606	114.69
308.83	149.5
309.054	36.86
309.278	57.34
309.502	90.11
309.725	67.58
309.949	139.26
310.173	108.54
310.397	73.73
310.62	73.73
310.844	59.39
311.068	139.26
311.292	116.73
311.515	73.73
311.739	94.21
311.962	53.25
312.186	98.3
312.41	61.44
312.633	51.2
312.857	90.11
313.08	86.01
313.303	28.67
313.527	83.97
313.75	122.88
313.974	106.49
314.197	118.78
314.42	55.3
314.644	75.77
314.867	73.73
315.09	147.45
315.313	59.39
315.536	114.69
315.76	65.53
315.983	49.15
316.206	167.93
316.429	86.01
316.652	77.82
316.875	43.01
317.098	126.97
317.321	108.54
317.544	43.01
317.767	45.06
317.99	131.07
318.213	61.44
318.436	122.88
318.658	36.86
318.881	104.45
319.104	86.01
319.327	45.06
319.55	45.06
319.772	192.51
319.995	98.3
320.218	137.21
320.44	92.16
320.663	77.82
320.885	122.88
321.108	110.59
321.331	155.65
321.553	157.69
321.776	53.25
321.998	75.77
322.22	69.63
322.443	159.74
322.665	67.58
322.888	75.77
323.11	102.4
323.332	51.2
323.555	53.25
323.777	59.39
323.999	86.01
324.221	53.25
324.443	104.45
324.666	61.44
324.888	83.97
325.11	135.17
325.332	110.59
325.554	122.88
325.776	28.67
325.998	102.4
326.22	98.3
326.442	40.96
326.664	45.06
326.886	135.17
327.108	18.43
327.33	92.16
327.551	61.44
327.773	26.62
327.995	98.3
328.217	92.16
328.439	102.4
328.66	92.16
328.882	55.3
329.104	65.53
329.325	73.73
329.547	65.53
329.769	12.29
329.99	110.59
330.212	98.3
330.433	43.01
330.655	116.73
330.876	180.22
331.098	122.88
331.319	65.53
331.54	135.17
331.762	114.69
331.983	81.92
332.204	40.96
332.426	65.53
332.647	139.26
332.868	98.3
333.089	83.97
333.311	104.45
333.532	98.3
333.753	86.01
333.974	90.11
334.195	118.78
334.416	92.16
334.637	57.34
334.858	32.77
335.079	94.21
335.3	137.21
335.521	79.87
335.742	163.84
335.963	114.69
336.184	118.78
336.405	141.31
336.626	73.73
336.846	112.64
337.067	49.15
337.288	67.58
337.509	98.3
337.729	73.73
337.95	102.4
338.171	94.21
338.391	49.15
338.612	126.97
338.833	45.06
339.053	133.12
339.274	122.88
339.494	57.34
339.715	135.17
339.935	81.92
340.156	75.77
340.376	81.92
340.596	147.45
340.817	94.21
341.037	73.73
341.257	43.01
341.478	79.87
341.698	143.36
341.918	106.49
342.138	92.16
342.359	131.07
342.579	153.6
342.799	124.93
343.019	57.34
343.239	49.15
343.459	100.35
343.679	153.6
343.899	26.62
344.119	108.54
344.339	57.34
344.559	67.58
344.779	8.19
344.999	61.44
345.219	75.77
345.439	159.74
345.658	176.13
345.878	34.82
346.098	137.21
346.318	69.63
346.537	0
346.757	135.17
346.977	135.17
347.196	73.73
347.416	67.58
347.636	98.3
347.855	141.31
348.075	120.83
348.294	92.16
348.514	57.34
348.733	153.6
348.953	40.96
349.172	86.01
349.392	114.69
349.611	65.53
349.83	90.11
350.05	157.69
350.269	24.58
350.488	100.35
350.707	135.17
350.927	71.68
351.146	106.49
351.365	36.86
351.584	92.16
351.803	92.16
352.023	155.65
352.242	53.25
352.461	94.21
352.68	149.5
352.899	100.35
353.118	135.17
353.337	51.2
353.556	98.3
353.775	139.26
353.993	40.96
354.212	124.93
354.431	139.26
354.65	143.36
354.869	98.3
355.088	71.68
355.306	133.12
355.525	57.34
355.744	53.25
355.962	112.64
356.181	151.55
356.4	90.11
356.618	65.53
356.837	118.78
357.055	77.82
357.274	77.82
357.492	69.63
357.711	131.07
357.929	114.69
358.148	149.5
358.366	137.21
358.585	122.88
358.803	114.69
359.021	135.17
359.24	137.21
359.458	49.15
359.676	135.17
359.894	75.77
360.113	122.88
360.331	122.88
360.549	122.88
360.767	61.44
360.985	112.64
361.203	139.26
361.421	131.07
361.639	75.77
361.857	100.35
362.075	36.86
362.293	151.55
362.511	24.58
362.729	124.93
362.947	61.44
363.165	75.77
363.383	116.73
363.601	45.06
363.819	118.78
364.036	122.88
364.254	81.92
364.472	200.7
364.689	141.31
364.907	145.41
365.125	155.65
365.342	180.22
365.56	196.61
365.778	86.01
365.995	75.77
366.213	65.53
366.43	61.44
366.648	73.73
366.865	131.07
367.083	100.35
367.3	104.45
367.517	155.65
367.735	106.49
367.952	124.93
368.17	151.55
368.387	122.88
368.604	102.4
368.821	69.63
369.039	147.45
369.256	61.44
369.473	149.5
369.69	118.78
369.907	118.78
370.124	114.69
370.341	57.34
370.558	114.69
370.776	98.3
370.993	149.5
371.21	86.01
371.426	77.82
371.643	106.49
371.86	120.83
372.077	81.92
372.294	57.34
372.511	106.49
372.728	126.97
372.945	79.87
373.161	67.58
373.378	165.89
373.595	149.5
373.811	192.51
374.028	155.65
374.245	92.16
374.461	65.53
374.678	110.59
374.895	112.64
375.111	180.22
375.328	73.73
375.544	67.58
375.761	157.69
375.977	172.03
376.194	81.92
376.41	219.13
376.626	73.73
376.843	131.07
377.059	135.17
377.275	110.59
377.492	155.65
377.708	163.84
377.924	110.59
378.14	114.69
378.357	126.97
378.573	124.93
378.789	180.22
379.005	155.65
379.221	110.59
379.437	139.26
379.653	96.25
379.869	233.47
380.085	196.61
380.301	104.45
380.517	155.65
380.733	163.84
380.949	149.5
381.165	135.17
381.381	139.26
381.597	67.58
381.813	96.25
382.028	124.93
382.244	122.88
382.46	198.65
382.676	141.31
382.891	174.08
383.107	161.79
383.323	182.27
383.538	110.59
383.754	212.99
383.969	143.36
384.185	167.93
384.4	192.51
384.616	176.13
384.831	188.41
385.047	141.31
385.262	139.26
385.478	172.03
385.693	196.61
385.909	192.51
386.124	221.18
386.339	176.13
386.554	147.45
386.77	147.45
386.985	190.46
387.2	190.46
387.415	247.8
387.631	188.41
387.846	223.23
388.061	155.65
388.276	321.53
388.491	143.36
388.706	188.41
388.921	270.33
389.136	221.18
389.351	262.14
389.566	210.94
389.781	135.17
389.996	303.1
390.211	169.98
390.426	229.37
390.641	270.33
390.855	204.8
391.07	196.61
391.285	223.23
391.5	278.52
391.714	251.9
391.929	249.85
392.144	229.37
392.358	184.32
392.573	278.52
392.788	249.85
393.002	196.61
393.217	342.01
393.431	241.66
393.646	311.29
393.86	305.15
394.075	266.24
394.289	344.06
394.504	311.29
394.718	374.78
394.933	299
395.147	329.72
395.361	397.31
395.576	307.2
395.79	385.02
396.004	331.77
396.218	346.11
396.432	376.83
396.647	395.26
396.861	321.53
397.075	344.06
397.289	372.73
397.503	342.01
397.717	419.83
397.931	350.2
398.145	499.7
398.359	464.89
398.573	448.51
398.787	438.27
399.001	477.18
399.215	440.31
399.429	425.98
399.643	557.05
399.857	518.14
400.07	509.94
400.284	577.53
400.498	540.66
400.712	552.95
400.925	471.03
401.139	493.56
401.353	511.99
401.566	638.97
401.78	522.23
401.994	708.6
402.207	679.93
402.421	675.83
402.634	681.97
402.848	733.17
403.061	638.97
403.275	692.21
403.488	712.69
403.702	763.89
403.915	696.31
404.128	704.5
404.342	757.75
404.555	794.61
404.768	811
404.982	862.19
405.195	874.48
405.408	868.34
405.621	763.89
405.835	911.35
406.048	886.77
406.261	919.54
406.474	874.48
406.687	886.77
406.9	1087.47
407.113	1023.98
407.326	1009.65
407.539	966.64
407.752	1048.56
407.965	1114.1
408.178	1163.25
408.391	1146.86
408.604	1146.86
408.817	1140.72
409.029	1222.64
409.242	1165.29
409.455	1214.45
409.668	1253.36
409.881	1355.76
410.093	1251.31
410.306	1335.28
410.519	1339.37
410.731	1425.39
410.944	1359.85
411.157	1322.99
411.369	1466.35
411.582	1445.87
411.794	1507.31
412.007	1400.81
412.219	1665
412.432	1546.22
412.644	1564.65
412.857	1595.37
413.069	1716.2
413.281	1710.05
413.494	1679.33
413.706	1728.49
413.918	1585.13
414.131	1796.07
414.343	1720.29
414.555	1589.22
414.767	1736.68
414.979	1884.13
415.192	1896.42
415.404	1902.56
415.616	1871.84
415.828	1861.6
416.04	1957.86
416.252	1861.6
416.464	1830.88
416.676	1882.08
416.888	1892.32
417.1	1984.48
417.312	1935.33
417.524	1920.99
417.736	1945.57
417.948	2117.6
418.159	2101.22
418.371	2056.16
418.583	2013.15
418.795	2058.21
419.007	2199.52
419.218	2125.79
419.43	2131.94
419.642	2193.37
419.853	2220
420.065	2205.66
420.276	2228.19
420.488	2349.02
420.7	2297.82
420.911	2314.2
421.123	2363.36
421.334	2224.09
421.546	2310.11
421.757	2357.21
421.969	2228.19
422.18	2371.55
422.391	2349.02
422.603	2410.46
422.814	2389.98
423.025	2623.45
423.237	2441.18
423.448	2533.34
423.659	2664.41
423.87	2656.22
424.082	2564.06
424.293	2514.91
424.504	2598.87
424.715	2521.05
424.926	2648.02
425.137	2408.41
425.348	2531.29
425.559	2664.41
425.77	2666.46
425.981	2600.92
426.192	2809.81
426.403	2787.29
426.614	2729.94
426.825	2707.41
427.036	2699.22
427.247	2424.8
427.458	2703.32
427.668	2664.41
427.879	2723.8
428.09	2779.09
428.301	2785.24
428.511	2762.71
428.722	2682.84
428.933	2797.53
429.143	2801.62
429.354	2777.05
429.565	2899.92
429.775	2754.52
429.986	2863.06
430.196	2789.33
430.407	2793.43
430.617	2580.44
430.828	2688.98
431.038	2772.95
431.249	2672.6
431.459	2703.32
431.669	2750.42
431.88	2715.61
432.09	2662.36
432.3	2852.82
432.511	2781.14
432.721	2793.43
432.931	2871.25
433.141	2557.91
433.351	2711.51
433.562	2822.1
433.772	2969.55
433.982	2865.11
434.192	2781.14
434.402	2711.51
434.612	2697.17
434.822	2818.01
435.032	2760.66
435.242	2707.41
435.452	2930.64
435.662	2879.44
435.872	2875.35
436.082	2674.65
436.292	2564.06
436.502	2547.67
436.711	2867.16
436.921	2635.74
437.131	2713.56
437.341	2748.37
437.551	2951.12
437.76	2785.24
437.97	2807.77
438.18	2785.24
438.389	2727.89
438.599	2580.44
438.808	2828.24
439.018	2697.17
439.228	2682.84
439.437	2785.24
439.647	2688.98
439.856	2772.95
440.066	2734.04
440.275	2707.41
440.484	2731.99
440.694	2619.35
440.903	2822.1
441.113	2662.36
441.322	2705.37
441.531	2674.65
441.741	2795.48
441.95	2691.03
442.159	2584.54
442.368	2678.74
442.577	2645.98
442.787	2572.25
442.996	2717.65
443.205	2779.09
443.414	2697.17
443.623	2666.46
443.832	2639.83
444.041	2670.55
444.25	2654.17
444.459	2549.72
444.668	2559.96
444.877	2514.91
445.086	2541.53
445.295	2582.49
445.504	2600.92
445.713	2596.82
445.922	2674.65
446.13	2545.63
446.339	2490.33
446.548	2500.57
446.757	2514.91
446.965	2564.06
447.174	2639.83
447.383	2631.64
447.591	2551.77
447.8	2324.44
448.009	2432.99
448.217	2482.14
448.426	2490.33
448.634	2457.56
448.843	2516.95
449.051	2379.74
449.26	2443.23
449.468	2484.19
449.677	2580.44
449.885	2416.6
450.093	2426.84
450.302	2293.73
450.51	2654.17
450.719	2375.64
450.927	2584.54
451.135	2396.12
451.343	2471.9
451.552	2451.42
451.76	2498.52
451.968	2467.8
452.176	2549.72
452.384	2531.29
452.592	2467.8
452.8	2400.22
453.009	2473.95
453.217	2449.37
453.425	2510.81
453.633	2379.74
453.841	2584.54
454.049	2482.14
454.257	2482.14
454.464	2451.42
454.672	2432.99
454.88	2613.21
455.088	2424.8
455.296	2340.83
455.504	2416.6
455.711	2424.8
455.919	2414.56
456.127	2437.08
456.335	2531.29
456.542	2473.95
456.75	2519
456.958	2432.99
457.165	2508.76
457.373	2435.03
457.581	2484.19
457.788	2547.67
457.996	2539.48
458.203	2547.67
458.411	2662.36
458.618	2484.19
458.826	2349.02
459.033	2656.22
459.24	2439.13
459.448	2598.87
459.655	2650.07
459.863	2721.75
460.07	2596.82
460.277	2473.95
460.484	2445.27
460.692	2637.78
460.899	2582.49
461.106	2547.67
461.313	2740.18
461.52	2535.39
461.728	2654.17
461.935	2719.7
462.142	2822.1
462.349	2580.44
462.556	2731.99
462.763	2736.09
462.97	2764.76
463.177	2539.48
463.384	2787.29
463.591	2648.02
463.798	2629.59
464.005	2787.29
464.212	2818.01
464.418	2693.08
464.625	2678.74
464.832	2904.02
465.039	2688.98
465.246	2813.91
465.452	2983.89
465.659	2764.76
465.866	2951.12
466.072	2910.16
466.279	3014.61
466.486	2908.12
466.692	2744.28
466.899	2940.88
467.105	2983.89
467.312	2965.46
467.519	2801.62
467.725	2973.65
467.931	3043.28
468.138	2881.49
468.344	3057.62
468.551	2877.4
468.757	3112.91
468.964	3117.01
469.17	2983.89
469.376	3080.15
469.583	3211.22
469.789	3149.78
469.995	3114.96
470.201	3207.12
470.408	3182.54
470.614	3229.65
470.82	3432.4
471.026	3393.48
471.232	3373
471.438	3172.3
471.644	3448.78
471.85	3426.25
472.056	3481.55
472.262	3549.13
472.468	3370.96
472.674	3729.35
472.88	3545.03
473.086	3723.21
473.292	3579.85
473.498	3813.32
473.704	3606.47
473.91	3846.09
474.116	3657.67
474.321	3811.27
474.527	3743.69
474.733	3882.95
474.939	3928
475.144	3899.33
475.35	3891.14
475.556	4136.9
475.761	4042.69
475.967	4161.47
476.173	4120.51
476.378	4227.01
476.584	4040.64
476.789	4261.82
476.995	4229.06
477.2	4302.78
477.406	4478.91
477.611	4620.22
477.817	4550.59
478.022	4489.15
478.227	4571.07
478.433	4407.23
478.638	4671.42
478.843	4911.03
479.049	4624.31
479.254	4927.41
479.459	4734.9
479.664	4888.5
479.87	4863.93
480.075	4980.66
480.28	4857.78
480.485	4902.84
480.69	4890.55
480.895	5044.15
481.1	5203.89
481.306	5164.98
481.511	5111.73
481.716	5310.38
481.921	5193.65
482.126	5226.42
482.33	5416.88
482.535	5578.67
482.74	5468.08
482.945	5455.79
483.15	5539.76
483.355	5259.18
483.56	5605.29
483.765	5607.34
483.969	5703.59
484.174	5652.39
484.379	5670.83
484.583	5777.32
484.788	5746.6
484.993	5771.18
485.197	5691.31
485.402	5808.04
485.607	5965.73
485.811	5908.39
486.016	5996.45
486.22	6094.76
486.425	6119.33
486.629	6023.08
486.834	6160.29
487.038	6154.15
487.243	6324.13
487.447	6150.05
487.652	6408.09
487.856	6291.36
488.06	6543.26
488.265	6348.7
488.469	6602.65
488.673	6461.34
488.877	6469.53
489.082	6580.12
489.286	6490.01
489.49	6573.98
489.694	6659.99
489.898	6588.32
490.102	6819.74
490.307	6741.91
490.511	6729.63
490.715	6948.76
490.919	7065.49
491.123	6727.58
491.327	7067.54
491.531	7034.77
491.735	7118.74
491.939	7028.63
492.143	7196.56
492.346	7022.48
492.55	7298.96
492.754	7184.27
492.958	7092.12
493.162	7208.85
493.366	7323.54
493.569	7356.3
493.773	7483.28
493.977	7348.11
494.18	7368.59
494.384	7362.45
494.588	7593.87
494.791	7493.52
494.995	7597.96
495.199	7552.91
495.402	7528.33
495.606	7661.45
495.809	7712.65
496.013	7608.2
496.216	7741.32
496.42	7950.21
496.623	7909.26
496.827	8040.33
497.03	7847.82
497.233	8093.57
497.437	8193.92
497.64	7833.48
497.843	8304.51
498.047	8073.09
498.25	8181.64
498.453	8210.31
498.656	8351.62
498.86	8337.28
499.063	8513.41
499.266	8388.48
499.469	8195.97
499.672	8470.4
499.875	8499.07
500.078	8699.77
500.281	8648.57
500.484	8679.29
500.687	8738.68
500.89	8423.3
501.093	8630.14
501.296	8576.89
501.499	8609.66
501.702	9013.11
501.905	9037.69
502.108	8865.66
502.311	8894.33
502.514	8916.86
502.716	9115.51
502.919	9066.36
503.122	9158.52
503.325	9129.84
503.527	9379.7
503.73	9275.25
503.933	9361.27
504.135	9232.24
504.338	9455.47
504.541	9342.83
504.743	9594.73
504.946	9473.9
505.148	9482.1
505.351	9684.84
505.553	9959.27
505.756	9731.95
505.958	9758.57
506.161	9885.55
506.363	9903.98
506.565	9717.61
506.768	9969.51
506.97	10301.28
507.172	10192.74
507.375	10135.4
507.577	10393.44
507.779	10205.03
507.982	10299.23
508.184	10235.75
508.386	10389.35
508.588	10499.94
508.79	10553.18
508.993	10749.79
509.195	10774.36
509.397	10817.37
509.599	10936.15
509.801	10923.87
510.003	11263.83
510.205	10997.59
510.407	11259.73
510.609	11212.63
510.811	11198.29
511.013	11167.57
511.215	11394.9
511.417	11435.86
511.618	11861.84
511.82	11900.75
512.022	11757.39
512.224	11767.63
512.426	12136.26
512.627	11818.83
512.829	11896.65
513.031	12197.7
513.233	12412.74
513.434	12406.59
513.636	12422.98
513.838	12627.78
514.039	12658.49
514.241	12656.45
514.442	12672.83
514.644	12721.98
514.845	12971.83
515.047	13342.52
515.248	13463.35
515.45	13268.79
515.651	13535.03
515.853	13684.53
516.054	13809.45
516.256	13676.34
516.457	13727.53
516.658	13729.58
516.86	13811.5
517.061	14075.69
517.262	14145.32
517.463	14309.16
517.665	14468.9
517.866	14223.14
518.067	14747.42
518.268	14616.35
518.469	14597.92
518.67	14843.68
518.872	14753.57
519.073	14499.62
519.274	15183.64
519.475	14880.54
519.676	15302.42
519.877	14954.27
520.078	15089.43
520.279	15206.17
520.48	15750.93
520.681	15718.16
520.881	15580.95
521.082	15484.69
521.283	16086.79
521.484	15814.41
521.685	15910.67
521.886	16156.43
522.086	16164.62
522.287	16465.67
522.488	16465.67
522.689	16641.79
522.889	16738.05
523.09	16723.71
523.291	17028.86
523.491	16926.46
523.692	16944.89
523.892	16858.88
524.093	17295.1
524.294	17010.43
524.494	17334.01
524.695	17198.84
524.895	17383.16
525.096	17276.66
525.296	17626.87
525.496	17426.17
525.697	17848.05
525.897	17409.78
526.098	17901.29
526.298	17878.77
526.498	18046.7
526.699	17919.73
526.899	18288.36
527.099	18267.88
527.299	18448.1
527.499	18355.94
527.7	18564.84
527.9	18319.08
528.1	18564.84
528.3	18587.36
528.5	18900.7
528.7	18767.59
528.9	18720.48
529.1	18966.24
529.3	19230.43
529.5	18912.99
529.7	19271.39
529.9	18908.9
530.1	19402.46
530.3	19052.25
530.5	19511
530.7	19478.23
530.9	19472.09
531.1	19384.02
531.3	19652.31
531.499	19537.62
531.699	19906.26
531.899	19787.47
532.099	20059.85
532.298	20063.95
532.498	20592.33
532.698	20170.44
532.897	20365
533.097	20281.03
533.297	20930.24
533.496	20602.57
533.696	21018.3
533.895	20487.88
534.095	20860.61
534.294	20758.21
534.494	20920
534.693	20645.57
534.893	21245.63
535.092	21221.05
535.292	21245.63
535.491	21042.88
535.69	21601.97
535.89	21284.54
536.089	21651.13
536.288	21642.93
536.488	21628.6
536.687	21700.28
536.886	21821.11
537.085	22228.65
537.285	22355.63
537.484	22003.38
537.683	22445.74
537.882	21968.56
538.081	22519.46
538.28	22236.84
538.479	22404.78
538.678	22533.8
538.877	22820.52
539.076	22857.38
539.275	22961.83
539.474	23088.8
539.673	23309.98
539.872	23021.22
540.071	23377.56
540.27	23023.26
540.469	23451.29
540.668	23013.02
540.867	23496.35
541.065	23371.42
541.264	23467.67
541.463	23314.08
541.662	23914.13
541.861	23754.39
542.059	24063.63
542.258	23975.57
542.457	23871.12
542.655	24141.46
542.854	24397.45
543.052	23989.91
543.251	24352.4
543.45	24014.48
543.648	24235.66
543.847	24628.87
544.045	24897.16
544.244	24696.46
544.442	25245.31
544.641	25032.32
544.839	25226.88
545.037	24770.18
545.236	25298.56
545.434	24809.09
545.632	25108.1
545.831	24917.64
546.029	25439.87
546.227	25325.18
546.426	26103.41
546.624	25609.85
546.822	26189.42
547.02	26234.48
547.218	26818.15
547.417	25955.96
547.615	26347.12
547.813	26127.99
548.011	26205.81
548.209	26334.83
548.407	26451.56
548.605	26910.31
548.803	27115.11
549.001	27000.42
549.199	27227.74
549.397	27014.76
549.595	27027.04
549.793	26611.31
549.991	26789.48
550.189	26773.1
550.387	27522.65
550.584	27184.74
550.782	27358.81
550.98	27100.77
551.178	27848.28
551.376	27719.26
551.573	28341.84
551.771	27995.73
551.969	28313.17
552.166	28200.53
552.364	28362.32
552.562	27756.12
552.759	27795.03
552.957	27792.98
553.154	28057.17
553.352	27999.83
553.55	28751.43
553.747	28456.53
553.945	28659.27
554.142	28808.78
554.339	29496.89
554.537	28657.23
554.734	29328.96
554.932	29206.08
555.129	29406.78
555.326	29634.11
555.524	29240.9
555.721	29404.74
555.918	29638.2
556.116	30035.51
556.313	29853.24
556.51	29937.21
556.707	30266.93
556.904	30246.45
557.102	30291.51
557.299	30234.16
557.496	30258.74
557.693	30539.31
557.89	30809.64
558.087	30256.69
558.284	30817.83
558.481	29855.29
558.678	30705.2
558.875	30848.55
559.072	30860.84
559.269	30912.04
559.466	31346.21
559.663	30557.74
559.86	31225.38
560.057	30928.42
560.254	31155.75
560.45	31594.01
560.647	31931.93
560.844	31206.95
561.041	31505.95
561.237	31692.32
561.434	32210.45
561.631	31997.46
561.828	32536.08
562.024	32126.49
562.221	32722.44
562.418	32386.58
562.614	32359.95
562.811	32912.91
563.007	33037.83
563.204	32579.09
563.4	33035.78
563.597	32718.35
563.793	33005.06
563.99	33541.63
564.186	33299.97
564.383	32865.8
564.579	33474.05
564.775	33132.04
564.972	33398.27
565.168	33725.95
565.365	33588.74
565.561	33224.2
565.757	33566.21
565.953	33324.55
566.15	33662.46
566.346	33603.07
566.542	33951.23
566.738	33279.49
566.934	33818.11
567.131	33728
567.327	33789.44
567.523	33062.41
567.719	34016.76
567.915	33256.96
568.111	33572.35
568.307	33191.43
568.503	34078.2
568.699	33928.7
568.895	34244.09
569.091	34080.25
569.287	34588.14
569.483	34242.04
569.679	34444.79
569.875	34444.79
570.07	34694.64
570.266	34776.56
570.462	34936.3
570.658	34434.55
570.854	34899.44
571.049	35106.28
571.245	35460.58
571.441	34942.44
571.636	35657.18
571.832	35114.47
572.028	36175.32
572.223	35180.01
572.419	36056.54
572.615	35364.32
572.81	35909.08
573.006	35642.85
573.201	36160.98
573.397	35952.09
573.592	36537.81
573.788	35755.49
573.983	36101.59
574.179	35964.38
574.374	35960.28
574.569	35720.67
574.765	36173.27
574.96	35386.85
575.156	36160.98
575.351	35784.16
575.546	35984.86
575.741	35997.15
575.937	36697.55
576.132	36138.46
576.327	36668.88
576.522	36001.24
576.718	36083.16
576.913	36730.32
577.108	36750.8
577.303	36441.56
577.498	36775.37
577.693	36568.53
577.888	36986.32
578.083	36302.29
578.278	36619.73
578.473	36140.5
578.668	36752.85
578.863	36156.89
579.058	37139.91
579.253	36351.45
579.448	37139.91
579.643	36986.32
579.838	37746.11
580.033	37490.12
580.227	38022.59
580.422	36928.97
580.617	37731.78
580.812	37260.74
581.006	37227.98
581.201	37129.67
581.396	38110.65
581.591	37461.44
581.785	37131.72
581.98	37023.18
582.175	38088.12
582.369	37860.8
582.564	38874.54
582.758	38696.37
582.953	38186.43
583.147	38045.12
583.342	38847.92
583.536	38251.96
583.731	38841.78
583.925	38362.55
584.12	38880.69
584.314	38430.13
584.509	38626.74
584.703	38548.92
584.897	38940.08
585.092	38393.27
585.286	39427.49
585.48	38299.06
585.674	38473.14
585.869	39052.72
586.063	38884.78
586.257	37959.1
586.451	38696.37
586.646	38579.64
586.84	38663.6
587.034	38473.14
587.228	39214.51
587.422	38659.51
587.616	39822.75
587.81	39458.21
588.004	39067.05
588.198	39114.16
588.392	39374.25
588.586	38839.73
588.78	39255.46
588.974	39333.29
589.168	39433.64
589.362	38983.09
589.556	39171.5
589.75	38852.02
589.944	39525.8
590.137	39488.93
590.331	39089.58
590.525	38987.18
590.719	39701.92
590.913	39269.8
591.106	39722.4
591.3	39667.11
591.494	40265.11
591.687	39783.84
591.881	39953.82
592.075	39421.35
592.268	40074.65
592.462	39806.37
592.655	39695.78
592.849	39976.35
593.043	40394.14
593.236	40373.66
593.43	40150.43
593.623	40250.78
593.817	41112.97
594.01	40504.73
594.203	40949.14
594.397	40504.73
594.59	41264.52
594.784	40334.74
594.977	40678.8
595.17	40965.52
595.364	41241.99
595.557	40627.6
595.75	41436.55
595.943	40664.47
596.137	41571.72
596.33	40867.22
596.523	41792.9
596.716	41309.58
596.909	41731.46
597.102	41006.48
597.296	41399.69
597.489	41352.58
597.682	41426.31
597.875	41461.13
598.068	41348.49
598.261	40816.02
598.454	41586.05
598.647	41072.01
598.84	42253.69
599.033	41526.66
599.226	42429.82
599.419	41594.25
599.611	41577.86
599.804	41162.12
599.997	41153.93
600.19	41555.33
600.383	41522.57
600.576	41708.93
600.768	41201.04
600.961	40922.51
601.154	41450.89
601.347	41627.01
601.539	42063.23
601.732	41371.02
601.925	42532.21
602.117	41203.08
602.31	42276.22
602.502	41778.56
602.695	42825.07
602.888	42268.03
603.08	42831.22
603.273	42579.32
603.465	42716.53
603.658	42364.28
603.85	42700.15
604.043	42786.16
604.235	43283.82
604.427	43183.47
604.62	43103.6
604.812	42331.51
605.004	42366.33
605.197	42458.49
605.389	42110.33
605.581	42096
605.774	42247.55
605.966	42057.09
606.158	42108.29
606.35	41549.19
606.543	42190.2
606.735	42243.45
606.927	42718.58
607.119	43066.73
607.311	43306.35
607.503	43363.69
607.695	43414.89
607.887	42497.4
608.079	43257.2
608.271	43199.85
608.463	43799.91
608.655	43332.97
608.847	43369.83
609.039	43136.37
609.231	42859.89
609.423	42669.43
609.615	43171.18
609.807	43228.52
609.999	43464.04
610.191	43402.6
610.382	43347.31
610.574	43173.23
610.766	44062.05
610.958	43140.46
611.15	43580.77
611.341	42720.63
611.533	43578.73
611.725	42714.48
611.916	43505
612.108	42440.06
612.3	42915.19
612.491	43224.43
612.683	43726.18
612.874	42984.82
613.066	43871.59
613.257	43267.44
613.449	43722.08
613.64	43038.06
613.832	43154.8
614.023	43160.94
614.215	43402.6
614.406	44029.28
614.598	43576.68
614.789	42923.38
614.98	44039.52
615.172	43347.31
615.363	43664.74
615.554	43185.52
615.746	43775.33
615.937	43388.27
616.128	43216.24
616.319	43154.8
616.511	42921.33
616.702	43013.49
616.893	43658.6
617.084	43238.76
617.275	43529.58
617.466	43660.65
617.658	43670.89
617.849	43386.22
618.04	43971.94
618.231	43468.14
618.422	44019.04
618.613	44242.27
618.804	43707.75
618.995	43367.79
619.186	44356.96
619.377	43640.17
619.568	44326.24
619.758	43505
619.949	44592.47
620.14	43890.02
620.331	44866.9
620.522	44461.4
620.713	45176.14
620.903	44373.34
621.094	45239.63
621.285	44647.77
621.476	44887.38
621.666	44635.48
621.857	45471.05
622.048	44856.66
622.238	45798.73
622.429	46198.08
622.62	46323.01
622.81	46343.48
623.001	46779.7
623.191	46347.58
623.382	47252.78
623.572	46574.91
623.763	47121.71
623.953	46415.16
624.144	47615.27
624.334	47035.7
624.525	48092.45
624.715	47650.09
624.905	48172.32
625.096	47207.73
625.286	47508.78
625.477	48303.39
625.667	48655.64
625.857	48616.73
626.047	49104.15
626.238	48448.8
626.428	48803.1
626.618	48145.7
626.808	49220.88
626.999	48917.78
627.189	49622.28
627.379	49108.24
627.569	50025.73
627.759	49614.09
627.949	49452.3
628.139	49638.67
628.329	49814.79
628.519	49542.41
628.709	50343.17
628.899	49706.25
629.089	50689.27
629.279	49747.21
629.469	50410.75
629.659	49952.01
629.849	49796.36
630.039	49595.66
630.229	50369.79
630.419	49562.89
630.609	50050.31
630.798	50054.4
630.988	50615.55
631.178	50158.85
631.368	50464
631.557	50339.07
631.747	50851.06
631.937	50611.45
632.127	50640.12
632.316	49591.56
632.506	50711.8
632.696	50513.15
632.885	50975.99
633.075	50066.69
633.264	50160.9
633.454	49861.9
633.643	50255.11
633.833	50056.45
634.022	51137.78
634.212	50674.94
634.401	51205.36
634.591	50910.46
634.78	51131.64
634.97	50029.83
635.159	51148.02
635.348	50302.21
635.538	50468.09
635.727	50160.9
635.916	50312.45
636.106	49523.98
636.295	49317.14
636.484	48868.63
636.674	49736.97
636.863	49319.18
637.052	50046.21
637.241	49978.63
637.43	50840.82
637.619	50078.98
637.809	50564.35
637.998	50670.84
638.187	50230.53
638.376	49663.24
638.565	50251.01
638.754	49990.92
638.943	50152.71
639.132	49460.49
639.321	49919.24
639.51	49444.11
639.699	49294.61
639.888	49040.66
640.077	49923.33
640.266	49392.91
640.455	49632.52
640.643	49032.47
640.832	50185.47
641.021	49249.55
641.21	49233.17
641.399	48672.03
641.587	49491.21
641.776	49493.26
641.965	49419.53
642.154	49665.29
642.342	49253.65
642.531	48426.27
642.72	48350.49
642.908	48370.97
643.097	48604.44
643.286	48082.21
643.474	49001.75
643.663	48698.65
643.851	48919.83
644.04	48284.96
644.228	48764.18
644.417	47953.19
644.605	48284.96
644.794	47936.8
644.982	48940.31
645.171	48489.76
645.359	48321.82
645.547	47529.26
645.736	48641.31
645.924	47813.93
646.112	48350.49
646.301	48352.54
646.489	48336.16
646.677	48049.44
646.866	48592.15
647.054	47564.07
647.242	48018.72
647.43	47854.89
647.618	48780.57
647.807	48469.28
647.995	48682.27
648.183	48057.63
648.371	48280.86
648.559	47363.37
648.747	48114.98
648.935	47633.71
649.123	47807.78
649.311	47086.9
649.499	48352.54
649.687	47365.42
649.875	48244
650.063	47666.47
650.251	47918.37
650.439	47256.88
650.627	48071.97
650.815	48084.26
651.003	48237.86
651.191	47166.77
651.378	47428.91
651.566	46548.28
651.754	47756.58
651.942	46904.63
652.13	47164.72
652.317	46904.63
652.505	47973.67
652.693	47134
652.88	47260.97
653.068	47412.52
653.256	47592.75
653.443	47709.48
653.631	47273.26
653.819	47252.78
654.006	47697.19
654.194	47105.33
654.381	48033.06
654.569	46982.45
654.756	47383.85
654.944	46916.92
655.131	47381.8
655.319	46529.85
655.506	46918.96
655.693	46763.32
655.881	47088.95
656.068	47387.95
656.256	47566.12
656.443	47306.03
656.63	47969.57
656.818	47557.93
657.005	48481.56
657.192	47531.31
657.379	48164.13
657.567	47088.95
657.754	47805.73
657.941	47590.7
658.128	47648.04
658.315	47273.26
658.502	47551.79
658.69	46652.73
658.877	47009.07
659.064	46404.92
659.251	47336.75
659.438	47496.49
659.625	48475.42
659.812	47889.7
659.999	48604.44
660.186	47881.51
660.373	48186.66
660.56	47230.26
660.747	46918.96
660.934	46859.57
661.121	47383.85
661.308	46851.38
661.494	46927.16
661.681	47164.72
661.868	47416.62
662.055	46689.59
662.242	47940.9
662.428	46634.3
662.615	47158.58
662.802	46796.09
662.989	47756.58
663.175	46855.48
663.362	47508.78
663.549	46918.96
663.735	47148.34
663.922	46959.92
664.109	47461.68
664.295	46982.45
664.482	47449.39
664.668	46820.66
664.855	47838.5
665.041	46388.54
665.228	47197.49
665.414	46263.61
665.601	46044.48
665.787	46126.4
665.974	46343.48
666.16	46304.57
666.347	46703.93
666.533	46083.39
666.719	47596.84
666.906	46404.92
667.092	46757.17
667.278	46085.44
667.465	46814.52
667.651	45778.25
667.837	46949.68
668.023	46931.25
668.21	46918.96
668.396	46331.2
668.582	47310.13
668.768	46400.83
668.954	46492.99
669.14	46019.91
669.327	45710.66
669.513	45843.78
669.699	46124.35
669.885	45690.18
670.071	47273.26
670.257	46878
670.443	46994.74
670.629	46384.44
670.815	46372.16
671.001	45763.91
671.187	46552.38
671.373	45372.75
671.559	46052.67
671.744	45043.02
671.93	45618.5
672.116	45571.4
672.302	46077.25
672.488	45688.13
672.674	45878.6
672.859	45425.99
673.045	46331.2
673.231	45602.12
673.417	46142.78
673.602	45929.8
673.788	46642.49
673.974	46189.89
674.159	46357.82
674.345	45942.08
674.531	46230.85
674.716	45403.47
674.902	45794.63
675.087	44774.74
675.273	46544.19
675.459	44926.29
675.644	46085.44
675.83	45385.04
676.015	46122.3
676.2	45444.43
676.386	45874.5
676.571	45387.08
676.757	46671.16
676.942	46288.19
677.128	47236.4
677.313	46323.01
677.498	47521.07
677.684	46626.1
677.869	46808.37
678.054	45872.45
678.24	46273.85
678.425	45686.09
678.61	45630.79
678.795	45217.1
678.98	45751.62
679.166	44608.86
679.351	45339.98
679.536	44946.77
679.721	45493.58
679.906	44711.25
680.091	45227.34
680.276	45204.81
680.461	45784.39
680.647	45026.64
680.832	46075.2
681.017	45210.96
681.202	45505.87
681.387	45020.5
681.572	46110.02
681.756	45438.28
681.941	45606.22
682.126	45219.15
682.311	44954.96
682.496	44320.09
682.681	45083.98
682.866	44979.54
683.051	44873.04
683.235	43904.35
683.42	45108.56
683.605	44602.71
683.79	45051.22
683.974	44516.7
684.159	45606.22
684.344	45147.47
684.529	45782.34
684.713	44268.89
684.898	44780.88
685.083	44285.28
685.267	44307.8
685.452	44156.25
685.636	43887.97
685.821	43169.13
686.005	43840.87
686.19	43224.43
686.375	43619.69
686.559	43521.38
686.744	43588.97
686.928	43924.83
687.112	44295.52
687.297	43783.52
687.481	44438.87
687.666	44359
687.85	45022.54
688.034	44412.25
688.219	45708.61
688.403	44629.33
688.587	44756.31
688.772	44303.71
688.956	44162.4
689.14	44627.29
689.324	44961.11
689.509	44688.73
689.693	44641.62
689.877	44166.49
690.061	44916.05
690.245	44172.64
690.43	44479.83
690.614	43736.42
690.798	44270.94
690.982	44143.97
691.166	44680.53
691.35	44252.51
691.534	44803.41
691.718	43832.68
691.902	44037.47
692.086	43646.31
692.27	43539.82
692.454	42759.54
692.638	43576.68
692.822	43472.23
693.006	43636.07
693.19	43388.27
693.373	43562.34
693.557	43353.45
693.741	43568.49
693.925	43261.29
694.109	43599.21
694.293	43492.71
694.476	43502.95
694.66	42937.71
694.844	43001.2
695.027	42411.38
695.211	43482.47
695.395	42808.69
695.578	43709.8
695.762	42306.94
695.946	42743.16
696.129	42274.17
696.313	42550.65
696.497	42452.34
696.68	42657.14
696.864	41753.99
697.047	42380.67
697.231	41979.26
697.414	41403.78
697.598	41739.65
697.781	42073.47
697.965	41639.3
698.148	42081.66
698.331	41366.92
698.515	42079.61
698.698	41239.95
698.881	42802.55
699.065	41438.6
699.248	42493.3
699.431	41424.26
699.615	41938.3
699.798	41645.44
699.981	42042.75
700.165	41350.54
700.348	41903.49
700.531	40994.19
700.714	41891.2
700.897	40422.81
701.08	41639.3
701.264	40504.73
701.447	40807.83
701.63	40693.14
701.813	41237.9
701.996	40375.7
702.179	40873.36
702.362	40977.81
702.545	41483.65
702.728	41219.47
702.911	41891.2
703.094	41422.22
703.277	41784.71
703.46	40207.77
703.643	41055.63
703.826	39589.28
704.009	40920.46
704.191	40240.54
704.374	39933.34
704.557	39282.09
704.74	40404.38
704.923	39929.25
705.106	40039.84
705.288	39427.49
705.471	39851.42
705.654	39493.03
705.837	40027.55
706.019	39884.19
706.202	40064.41
706.385	39751.07
706.567	40132
706.75	40048.03
706.932	40189.34
707.115	39007.66
707.298	39075.24
707.48	39015.85
707.663	38114.75
707.845	37510.6
708.028	38129.08
708.21	37631.43
708.393	38442.42
708.575	37434.82
708.758	38309.3
708.94	37686.72
709.123	37709.25
709.305	37287.37
709.487	38356.41
709.67	37596.61
709.852	38364.6
710.034	37916.09
710.217	38974.89
710.399	38454.71
710.581	38157.75
710.764	38444.47
710.946	37746.11
711.128	36726.22
711.31	37803.46
711.492	37180.87
711.675	37537.22
711.857	37012.94
712.039	37309.89
712.221	37078.47
712.403	37090.76
712.585	36894.16
712.767	37277.13
712.949	36228.57
713.131	36885.97
713.314	36247
713.496	36662.74
713.678	36328.92
713.86	36828.62
714.041	36580.82
714.223	37043.66
714.405	37111.24
714.587	37123.53
714.769	36201.94
714.951	36478.42
715.133	36130.26
715.315	36419.03
715.497	35786.21
715.678	35851.74
715.86	36275.67
716.042	36228.57
716.224	35843.55
716.406	36302.29
716.587	36146.65
716.769	36019.67
716.951	35792.35
717.132	35581.41
717.314	35284.45
717.496	35780.06
717.677	35106.28
717.859	35669.47
718.041	35378.66
718.222	35853.79
718.404	35319.27
718.585	35622.37
718.767	34682.35
718.948	35077.61
719.13	34643.44
719.311	34643.44
719.493	34528.75
719.674	34473.46
719.856	34090.49
720.037	34024.95
720.219	34100.73
720.4	34188.79
720.581	33689.09
720.763	34141.69
720.944	34102.78
721.125	34635.25
721.307	33775.1
721.488	34110.97
721.669	33744.38
721.85	33777.15
722.032	33355.27
722.213	33715.71
722.394	33504.77
722.575	33723.9
722.756	33183.24
722.938	33504.77
723.119	32491.02
723.3	32241.17
723.481	32202.26
723.662	32644.62
723.843	32140.82
724.024	32626.19
724.205	32558.61
724.386	32562.7
724.567	31880.73
724.748	32873.99
724.929	31997.46
725.11	32964.1
725.291	32405.01
725.472	32943.63
725.653	32439.83
725.834	32527.89
726.015	31991.32
726.196	32560.66
726.377	31542.81
726.557	31573.53
726.738	30856.75
726.919	31272.48
727.1	30742.06
727.281	30836.27
727.461	30551.6
727.642	30354.99
727.823	29822.52
728.004	30387.76
728.184	30055.99
728.365	30232.11
728.546	29886.01
728.726	30162.48
728.907	30144.05
729.087	30598.7
729.268	29879.86
729.449	30490.16
729.629	29730.36
729.81	30330.42
729.99	29849.14
730.171	30103.09
730.351	29974.07
730.532	30223.92
730.712	29421.12
730.893	29746.75
731.073	29267.52
731.253	29103.68
731.434	28870.22
731.614	28929.61
731.795	28499.53
731.975	29410.88
732.155	28528.2
732.336	29040.2
732.516	28556.88
732.696	29150.79
732.876	28751.43
733.057	28571.21
733.237	28108.37
733.417	28765.77
733.597	28309.07
733.778	28302.93
733.958	28335.7
734.138	28507.72
734.318	27778.65
734.498	27960.92
734.678	27291.23
734.858	27616.86
735.038	27043.43
735.218	27367.01
735.398	26928.74
735.579	26666.6
735.759	26971.75
735.939	27029.09
736.119	26945.12
736.298	27061.86
736.478	26562.15
736.658	26551.91
736.838	26158.7
737.018	25933.43
737.198	26250.86
737.378	26193.52
737.558	25681.53
737.738	26019.44
737.917	25599.61
738.097	25534.07
738.277	25226.88
738.457	25611.9
738.637	25443.96
738.816	25298.56
738.996	25058.95
739.176	25654.9
739.355	25296.51
739.535	25407.1
739.715	24897.16
739.894	25216.64
740.074	24981.12
740.254	25271.93
740.433	24618.63
740.613	24800.9
740.792	24886.92
740.972	24784.52
741.151	24505.99
741.331	24948.36
741.51	24495.75
741.69	24610.44
741.869	24250
742.049	23973.52
742.228	24198.8
742.408	24233.61
742.587	23508.63
742.766	24010.39
742.946	23703.19
743.125	23410.33
743.305	23342.75
743.484	23228.06
743.663	23041.7
743.842	23373.47
744.022	22900.39
744.201	23109.28
744.38	22654.63
744.56	22646.44
744.739	22666.92
744.918	22834.85
745.097	22871.72
745.276	22720.17
745.455	22562.47
745.635	22314.67
745.814	22226.6
745.993	22533.8
746.172	22187.69
746.351	22412.97
746.53	22322.86
746.709	22113.97
746.888	22400.68
747.067	22419.11
747.246	22271.66
747.425	21976.75
747.604	21941.94
747.783	22003.38
747.962	21808.82
748.141	22142.64
748.32	21550.78
748.499	22113.97
748.677	22406.83
748.856	22365.87
749.035	22105.77
749.214	22505.13
749.393	22623.91
749.572	22474.41
749.75	22124.21
749.929	22384.3
750.108	21800.63
750.287	22558.38
750.465	22363.82
750.644	22447.79
750.823	22451.88
751.001	22625.96
751.18	22388.39
751.359	22515.37
751.537	22144.69
751.716	22511.27
751.894	22236.84
752.073	21954.22
752.251	22103.73
752.43	21978.8
752.609	21702.32
752.787	22148.78
752.966	21898.93
753.144	22275.76
753.322	21829.3
753.501	21782.2
753.679	21638.84
753.858	22050.48
754.036	21788.34
754.215	22093.49
754.393	21759.67
754.571	22296.24
754.75	21714.61
754.928	21763.76
755.106	21776.05
755.284	21503.67
755.463	21446.33
755.641	22150.83
755.819	21888.69
755.997	21479.1
756.176	21358.27
756.354	21767.86
756.532	21472.95
756.71	21601.97
756.888	20965.06
757.066	21221.05
757.245	21049.02
757.423	21593.78
757.601	20868.8
757.779	21212.86
757.957	20999.87
758.135	21128.89
758.313	20926.14
758.491	21376.7
758.669	20928.19
758.847	20702.92
759.025	20408.01
759.203	20676.29
759.381	20211.4
759.559	20438.73
759.737	20319.95
759.915	20711.11
760.092	20393.67
760.27	20575.94
760.448	19969.74
760.626	20145.87
760.804	19769.04
760.981	19674.84
761.159	19590.87
761.337	19879.63
761.515	19207.9
761.692	19597.01
761.87	19453.66
762.048	19857.1
762.226	19431.13
762.403	19529.43
762.581	18941.66
762.759	19324.63
762.936	19222.23
763.114	18990.81
763.291	18378.47
763.469	18620.13
763.647	18104.04
763.824	18327.27
764.002	17829.62
764.179	18095.85
764.357	17903.34
764.534	17889.01
764.712	17331.96
764.889	17538.8
765.066	17110.78
765.244	17377.01
765.421	16701.19
765.599	16752.38
765.776	16666.37
765.953	16828.16
766.131	16537.35
766.308	16639.75
766.485	16203.53
766.663	16623.36
766.84	16158.47
767.017	16267.02
767.194	16324.36
767.372	16346.89
767.549	15597.33
767.726	15785.74
767.903	15273.75
768.081	15490.84
768.258	15120.15
768.435	15073.05
768.612	14944.03
768.789	14765.85
768.966	14849.82
769.143	14597.92
769.32	14561.06
769.497	14366.5
769.674	14151.46
769.851	14223.14
770.028	14022.44
770.205	13618.99
770.382	13801.26
770.559	13866.8
770.736	13602.61
770.913	13680.43
771.09	13373.24
771.267	13287.22
771.444	13219.64
771.621	13289.27
771.798	12848.96
771.975	12902.2
772.151	12459.84
772.328	12494.66
772.505	11953.99
772.682	12164.93
772.859	11759.44
773.035	12052.3
773.212	11591.5
773.389	11734.86
773.565	11181.91
773.742	11198.29
773.919	10882.91
774.096	10940.25
774.272	11224.92
774.449	10827.61
774.625	10755.93
774.802	10653.53
774.979	10436.45
775.155	10534.75
775.332	10430.3
775.508	10323.81
775.685	10211.17
775.861	10106.73
776.038	9946.98
776.214	10100.58
776.391	9703.28
776.567	9846.63
776.744	9625.45
776.92	9801.58
777.096	9611.12
777.273	9512.81
777.449	9334.64
777.626	9281.39
777.802	9113.46
777.978	9086.84
778.155	8953.72
778.331	8886.14
778.507	8904.57
778.683	8687.48
778.86	8474.49
779.036	8540.03
779.212	8456.06
779.388	8396.67
779.565	8103.81
779.741	8175.49
779.917	7964.55
780.093	7925.64
780.269	7874.44
780.445	7911.3
780.621	7514
780.797	7665.55
780.974	7438.22
781.15	7524.24
781.326	7536.52
781.502	7382.93
781.678	7301.01
781.854	7319.44
782.03	7100.31
782.206	7176.08
782.382	7139.22
782.558	7047.06
782.733	7110.55
782.909	7008.15
783.085	6768.54
783.261	6791.06
783.437	6887.32
783.613	7020.44
783.789	6797.21
783.965	6768.54
784.14	6655.9
784.316	6578.08
784.492	6309.79
784.668	6490.01
784.843	6424.48
785.019	6266.78
785.195	6393.76
785.371	6252.45
785.546	6090.66
785.722	6123.43
785.898	5980.07
786.073	5975.97
786.249	5826.47
786.424	5627.82
786.6	5722.02
786.776	5705.64
786.951	5537.71
787.127	5529.52
787.302	5437.36
787.478	5488.56
787.653	5476.27
787.829	5328.81
788.004	5302.19
788.18	5302.19
788.355	5169.07
788.531	5261.23
788.706	4984.76
788.881	5083.06
789.057	5087.15
789.232	4970.42
789.408	4956.08
789.583	4728.76
789.758	4825.01
789.934	4861.88
790.109	4786.1
790.284	4804.53
790.459	4536.25
790.635	4636.6
790.81	4429.76
790.985	4493.24
791.16	4423.61
791.336	4247.49
791.511	4267.97
791.686	4284.35
791.861	4253.63
792.036	4222.91
792.211	4149.18
792.387	4300.73
792.562	4218.82
792.737	4014.02
792.912	4104.13
793.087	4011.97
793.262	3862.47
793.437	3850.18
793.612	3860.42
793.787	3844.04
793.962	3753.93
794.137	3829.7
794.312	3686.34
794.487	3776.45
794.662	3805.13
794.837	3614.66
795.011	3696.58
795.186	3676.1
795.361	3497.93
795.536	3606.47
795.711	3514.31
795.886	3592.14
796.06	3502.03
796.235	3448.78
796.41	3319.76
796.585	3434.44
796.76	3385.29
796.934	3301.33
797.109	3301.33
797.284	3350.48
797.458	3153.87
797.633	3162.06
797.808	3203.02
797.982	3131.34
798.157	3186.64
798.332	3213.26
798.506	3000.27
798.681	3057.62
798.855	3033.04
799.03	3121.1
799.204	2981.84
799.379	2920.4
799.553	2985.94
799.728	3018.71
799.902	2928.6
800.077	2998.23
800.251	2973.65
800.426	2977.75
800.6	2869.2
800.775	2869.2
800.949	2764.76
801.123	2875.35
801.298	2705.37
801.472	2719.7
801.647	2785.24
801.821	2787.29
801.995	2686.93
802.169	2842.58
802.344	2723.8
802.518	2686.93
802.692	2785.24
802.867	2713.56
803.041	2582.49
803.215	2793.43
803.389	2670.55
803.563	2559.96
803.737	2680.79
803.912	2584.54
804.086	2576.34
804.26	2598.87
804.434	2418.65
804.608	2523.1
804.782	2473.95
804.956	2590.68
805.13	2494.43
805.304	2504.67
805.478	2582.49
805.652	2516.95
805.826	2473.95
806	2447.32
806.174	2457.56
806.348	2342.88
806.522	2340.83
806.696	2453.47
806.87	2453.47
807.044	2432.99
807.218	2260.96
807.392	2357.21
807.566	2293.73
807.739	2375.64
807.913	2312.16
808.087	2256.86
808.261	2310.11
808.435	2363.36
808.608	2318.3
808.782	2357.21
808.956	2326.49
809.13	2310.11
809.303	2162.65
809.477	2320.35
809.651	2080.74
809.824	2369.5
809.998	2281.44
810.172	2342.88
810.345	2342.88
810.519	2441.18
810.692	2279.39
810.866	2271.2
811.04	2222.05
811.213	2371.55
811.387	2256.86
811.56	2291.68
811.734	2215.9
811.907	2396.12
812.081	2324.44
812.254	2238.43
812.428	2260.96
812.601	2375.64
812.774	2297.82
812.948	2365.4
813.121	2291.68
813.295	2158.56
813.468	2289.63
813.641	2232.29
813.815	2238.43
813.988	2267.1
814.161	2297.82
814.335	2316.25
814.508	2310.11
814.681	2263.01
814.854	2246.62
815.028	2277.34
815.201	2252.77
815.374	2232.29
815.547	2181.09
815.72	2213.85
815.894	2273.25
816.067	2295.77
816.24	2244.57
816.413	2138.08
816.586	2107.36
816.759	2230.24
816.932	2174.94
817.105	2246.62
817.278	2056.16
817.452	2107.36
817.625	2107.36
817.798	2107.36
817.971	2211.81
818.144	2228.19
818.317	2203.61
818.49	2176.99
818.662	2248.67
818.835	2220
819.008	2277.34
819.181	2207.71
819.354	2197.47
819.527	2084.83
819.7	2295.77
819.873	2205.66
820.046	2123.74
820.218	2148.32
820.391	2125.79
820.564	2183.13
820.737	2146.27
820.909	2285.53
821.082	2344.92
821.255	2228.19
821.428	2066.4
821.6	2164.7
821.773	2195.42
821.946	2205.66
822.118	2160.61
822.291	2101.22
822.464	1970.15
822.636	2066.4
822.809	2285.53
822.982	2158.56
823.154	2236.38
823.327	2156.51
823.499	2185.18
823.672	2138.08
823.844	2015.2
824.017	2146.27
824.189	2064.35
824.362	2047.97
824.534	2117.6
824.707	2031.58
824.879	2064.35
825.052	2088.93
825.224	2187.23
825.396	2121.7
825.569	2179.04
825.741	2228.19
825.914	2209.76
826.086	2123.74
826.258	2170.85
826.431	2047.97
826.603	2187.23
826.775	2080.74
826.947	2129.89
827.12	2039.78
827.292	2093.02
827.464	2052.06
827.636	1992.67
827.809	1949.67
827.981	2050.02
828.153	2074.59
828.325	1966.05
828.497	1968.1
828.669	2011.11
828.842	2107.36
829.014	2015.2
829.186	2015.2
829.358	1986.53
829.53	1970.15
829.702	2011.11
829.874	2060.26
830.046	1966.05
830.218	1990.63
830.39	1925.09
830.562	1880.04
830.734	2043.87
830.906	1976.29
831.078	1949.67
831.25	1966.05
831.422	1871.84
831.594	1974.24
831.766	1990.63
831.937	1851.36
832.109	1845.22
832.281	1998.82
832.453	1904.61
832.625	1920.99
832.797	1845.22
832.968	1964
833.14	1951.71
833.312	1939.43
833.484	1900.52
833.655	1847.27
833.827	1812.45
833.999	1966.05
834.171	1845.22
834.342	1888.23
834.514	1904.61
834.686	1880.04
834.857	1867.75
835.029	1933.28
835.2	1834.98
835.372	1732.58
835.544	1822.69
835.715	1896.42
835.887	1886.18
836.058	1863.65
836.23	1877.99
836.401	1861.6
836.573	1863.65
836.744	1785.83
836.916	1781.73
837.087	1773.54
837.259	1769.44
837.43	1806.31
837.602	1757.16
837.773	1810.4
837.945	1703.91
838.116	1785.83
838.287	1697.77
838.459	1802.21
838.63	1789.92
838.801	1834.98
838.973	1851.36
839.144	1732.58
839.315	1777.64
839.487	1761.25
839.658	1806.31
839.829	1712.1
840	1802.21
840.172	1736.68
840.343	1759.21
840.514	1810.4
840.685	1802.21
840.856	1791.97
841.027	1675.24
841.199	1818.6
841.37	1568.74
841.541	1755.11
841.712	1603.56
841.883	1804.26
842.054	1658.85
842.225	1630.18
842.396	1630.18
842.567	1662.95
842.738	1550.31
842.909	1617.9
843.08	1589.22
843.251	1566.7
843.422	1697.77
843.593	1687.53
843.764	1634.28
843.935	1722.34
844.106	1599.46
844.277	1634.28
844.448	1566.7
844.619	1515.5
844.79	1583.08
844.96	1441.77
845.131	1609.7
845.302	1556.46
845.473	1441.77
845.644	1468.39
845.814	1624.04
845.985	1548.26
846.156	1535.98
846.327	1460.2
846.497	1441.77
846.668	1449.96
846.839	1443.82
847.01	1359.85
847.18	1431.53
847.351	1413.1
847.522	1351.66
847.692	1333.23
847.863	1454.06
848.033	1320.94
848.204	1269.74
848.375	1433.58
848.545	1300.46
848.716	1312.75
848.886	1335.28
849.057	1400.81
849.227	1320.94
849.398	1290.22
849.568	1206.25
849.739	1322.99
849.909	1335.28
850.08	1343.47
850.25	1357.8
850.421	1220.59
850.591	1339.37
850.761	1263.6
850.932	1220.59
851.102	1196.01
851.272	1210.35
851.443	1286.12
851.613	1191.92
851.783	1196.01
851.954	1155.05
852.124	1269.74
852.294	1187.82
852.465	1208.3
852.635	1224.69
852.805	1155.05
852.975	1134.57
853.145	1085.42
853.316	1206.25
853.486	1193.97
853.656	1122.29
853.826	1191.92
853.996	1122.29
854.166	1114.1
854.337	1236.97
854.507	1183.73
854.677	1167.34
854.847	1220.59
855.017	1140.72
855.187	1060.85
855.357	1093.62
855.527	1140.72
855.697	1105.9
855.867	1155.05
856.037	1048.56
856.207	976.88
856.377	968.69
856.547	1028.08
856.717	1019.89
856.887	966.64
857.057	991.22
857.227	940.02
857.397	1019.89
857.566	991.22
857.736	884.72
857.906	985.07
858.076	933.87
858.246	946.16
858.416	964.59
858.585	989.17
858.755	974.83
858.925	901.11
859.095	931.83
859.264	856.05
859.434	978.93
859.604	829.43
859.774	954.35
859.943	894.96
860.113	952.31
860.283	933.87
860.452	942.07
860.622	876.53
860.791	911.35
860.961	884.72
861.131	804.85
861.3	913.39
861.47	899.06
861.639	815.09
861.809	864.24
861.978	780.28
862.148	878.58
862.318	872.43
862.487	825.33
862.657	804.85
862.826	831.48
862.995	761.84
863.165	888.82
863.334	819.19
863.504	851.95
863.673	878.58
863.843	737.27
864.012	913.39
864.181	886.77
864.351	827.38
864.52	886.77
864.689	784.37
864.859	933.87
865.028	815.09
865.197	741.36
865.366	823.28
865.536	849.91
865.705	774.13
865.874	770.04
866.043	761.84
866.213	743.41
866.382	778.23
866.551	704.5
866.72	802.8
866.889	741.36
867.059	716.79
867.228	755.7
867.397	700.41
867.566	755.7
867.735	823.28
867.904	747.51
868.073	753.65
868.242	733.17
868.411	798.71
868.58	727.03
868.749	692.21
868.918	731.12
869.087	679.93
869.256	763.89
869.425	761.84
869.594	610.29
869.763	780.28
869.932	720.88
870.101	651.25
870.27	638.97
870.439	667.64
870.608	759.8
870.777	671.73
870.945	690.17
871.114	647.16
871.283	669.69
871.452	628.73
871.621	638.97
871.789	626.68
871.958	583.67
872.127	671.73
872.296	618.49
872.464	641.01
872.633	589.81
872.802	655.35
872.971	614.39
873.139	657.4
873.308	618.49
873.477	729.08
873.645	598.01
873.814	655.35
873.983	626.68
874.151	704.5
874.32	655.35
874.488	671.73
874.657	608.25
874.826	606.2
874.994	638.97
875.163	630.77
875.331	587.77
875.5	643.06
875.668	600.05
875.837	583.67
876.005	581.62
876.174	638.97
876.342	638.97
876.51	548.86
876.679	565.24
876.847	612.34
877.016	634.87
877.184	573.43
877.352	610.29
877.521	675.83
877.689	614.39
877.857	507.9
878.026	585.72
878.194	641.01
878.362	589.81
878.531	538.62
878.699	542.71
878.867	559.1
879.036	587.77
879.204	516.09
879.372	518.14
879.54	518.14
879.708	522.23
879.877	550.9
880.045	516.09
880.213	628.73
880.381	520.18
880.549	462.84
880.717	524.28
880.885	507.9
881.054	499.7
881.222	587.77
881.39	491.51
881.558	493.56
881.726	518.14
881.894	436.22
882.062	444.41
882.23	524.28
882.398	540.66
882.566	503.8
882.734	481.27
882.902	618.49
883.07	458.74
883.238	567.29
883.406	593.91
883.574	606.2
883.741	466.94
883.909	573.43
884.077	483.32
884.245	458.74
884.413	507.9
884.581	489.46
884.749	557.05
884.916	598.01
885.084	493.56
885.252	540.66
885.42	507.9
885.587	487.42
885.755	530.42
885.923	532.47
886.091	550.9
886.258	557.05
886.426	622.58
886.594	391.16
886.761	552.95
886.929	569.34
887.097	491.51
887.264	524.28
887.432	471.03
887.6	466.94
887.767	518.14
887.935	514.04
888.102	544.76
888.27	434.17
888.438	544.76
888.605	491.51
888.773	511.99
888.94	569.34
889.108	518.14
889.275	483.32
889.443	497.66
889.61	442.36
889.778	475.13
889.945	501.75
890.112	534.52
890.28	466.94
890.447	434.17
890.615	452.6
890.782	495.61
890.949	518.14
891.117	561.14
891.284	446.46
891.452	450.55
891.619	466.94
891.786	501.75
891.953	495.61
892.121	499.7
892.288	450.55
892.455	374.78
892.623	378.87
892.79	462.84
892.957	491.51
893.124	376.83
893.291	456.7
893.459	479.22
893.626	415.74
893.793	487.42
893.96	499.7
894.127	528.38
894.294	507.9
894.461	452.6
894.629	411.64
894.796	421.88
894.963	442.36
895.13	438.27
895.297	425.98
895.464	483.32
895.631	448.51
895.798	403.45
895.965	483.32
896.132	450.55
896.299	428.03
896.466	520.18
896.633	516.09
896.8	491.51
896.967	473.08
897.134	477.18
897.301	415.74
897.467	462.84
897.634	438.27
897.801	385.02
897.968	485.37
898.135	518.14
898.302	477.18
898.469	432.12
898.635	411.64
898.802	516.09
898.969	425.98
899.136	487.42
899.303	483.32
