Data from light_USB4E013581_00010.txt Node
Date: Wed May 08 15:04:41 EDT 2019
User: dh1006
Spectrometer: USB4E01358
Autoset integration time: false
Trigger mode: 4
Integration Time (sec): 2.925000E-2
Scans to average: 1
Electric dark correction enabled: true
Nonlinearity correction enabled: false
Boxcar width: 0
Stray light correction enabled: false
XAxis mode: Wavelengths
Stop averaging: false
Number of Pixels in Spectrum: 3648
>>>>>Begin Spectral Data<<<<<
176.727	-33.24
176.966	-33.24
177.205	-33.24
177.444	-14.81
177.683	-55.77
177.922	30.25
178.161	-33.24
178.4	13.86
178.638	71.21
178.877	60.97
179.116	-23
179.355	50.73
179.593	-0.47
179.832	20.01
180.071	-23
180.309	67.11
180.548	-45.53
180.786	3.62
181.025	17.96
181.263	99.88
181.502	149.03
181.74	118.31
181.979	93.73
182.217	91.69
182.456	140.84
182.694	95.78
182.932	93.73
183.17	15.91
183.409	65.06
183.647	120.36
183.885	69.16
184.123	54.82
184.361	3.62
184.6	32.29
184.838	34.34
185.076	95.78
185.314	138.79
185.552	44.58
185.79	73.25
186.028	58.92
186.266	58.92
186.503	93.73
186.741	69.16
186.979	42.53
187.217	52.77
187.455	58.92
187.693	26.15
187.93	83.49
188.168	99.88
188.406	24.1
188.643	58.92
188.881	60.97
189.119	118.31
189.356	118.31
189.594	11.82
189.831	63.01
190.069	58.92
190.306	5.67
190.543	77.35
190.781	69.16
191.018	46.63
191.256	58.92
191.493	85.54
191.73	79.4
191.967	87.59
192.205	75.3
192.442	79.4
192.679	93.73
192.916	87.59
193.153	114.21
193.39	42.53
193.628	112.17
193.865	128.55
194.102	67.11
194.339	85.54
194.576	83.49
194.813	110.12
195.049	71.21
195.286	50.73
195.523	50.73
195.76	108.07
195.997	83.49
196.234	50.73
196.47	58.92
196.707	56.87
196.944	101.93
197.18	-14.81
197.417	7.72
197.654	91.69
197.89	77.35
198.127	118.31
198.363	65.06
198.6	108.07
198.836	73.25
199.073	87.59
199.309	36.39
199.546	50.73
199.782	-18.9
200.018	52.77
200.255	46.63
200.491	169.51
200.727	110.12
200.963	69.16
201.199	110.12
201.436	9.77
201.672	26.15
201.908	97.83
202.144	71.21
202.38	-18.9
202.616	93.73
202.852	103.97
203.088	112.17
203.324	93.73
203.56	60.97
203.796	99.88
204.032	91.69
204.268	69.16
204.503	83.49
204.739	112.17
204.975	77.35
205.211	75.3
205.446	50.73
205.682	116.26
205.918	120.36
206.153	99.88
206.389	9.77
206.625	89.64
206.86	69.16
207.096	99.88
207.331	67.11
207.567	44.58
207.802	93.73
208.037	77.35
208.273	108.07
208.508	181.8
208.744	136.74
208.979	91.69
209.214	69.16
209.449	13.86
209.685	149.03
209.92	58.92
210.155	52.77
210.39	52.77
210.625	1.58
210.86	63.01
211.095	95.78
211.33	77.35
211.565	-8.66
211.8	63.01
212.035	83.49
212.27	132.65
212.505	97.83
212.74	77.35
212.975	60.97
213.21	58.92
213.444	26.15
213.679	120.36
213.914	46.63
214.149	46.63
214.383	40.49
214.618	91.69
214.853	44.58
215.087	130.6
215.322	60.97
215.556	126.5
215.791	60.97
216.025	126.5
216.26	50.73
216.494	5.67
216.729	95.78
216.963	40.49
217.197	65.06
217.432	79.4
217.666	87.59
217.9	118.31
218.135	65.06
218.369	138.79
218.603	58.92
218.837	85.54
219.071	79.4
219.306	128.55
219.54	124.45
219.774	99.88
220.008	52.77
220.242	50.73
220.476	50.73
220.71	101.93
220.944	58.92
221.178	112.17
221.411	97.83
221.645	63.01
221.879	54.82
222.113	116.26
222.347	28.2
222.58	69.16
222.814	91.69
223.048	110.12
223.281	83.49
223.515	77.35
223.749	42.53
223.982	93.73
224.216	83.49
224.449	28.2
224.683	17.96
224.916	54.82
225.15	93.73
225.383	38.44
225.617	132.65
225.85	73.25
226.083	91.69
226.317	116.26
226.55	52.77
226.783	128.55
227.016	42.53
227.25	-39.38
227.483	5.67
227.716	142.89
227.949	79.4
228.182	26.15
228.415	50.73
228.648	-2.52
228.881	56.87
229.114	77.35
229.347	79.4
229.58	50.73
229.813	89.64
230.046	116.26
230.279	99.88
230.512	75.3
230.745	116.26
230.977	116.26
231.21	144.93
231.443	144.93
231.675	52.77
231.908	46.63
232.141	132.65
232.373	146.98
232.606	114.21
232.839	91.69
233.071	116.26
233.304	5.67
233.536	95.78
233.769	177.7
234.001	93.73
234.233	83.49
234.466	112.17
234.698	108.07
234.93	67.11
235.163	116.26
235.395	71.21
235.627	108.07
235.86	77.35
236.092	11.82
236.324	140.84
236.556	60.97
236.788	69.16
237.02	75.3
237.252	114.21
237.484	58.92
237.716	36.39
237.948	79.4
238.18	67.11
238.412	132.65
238.644	91.69
238.876	87.59
239.108	85.54
239.34	5.67
239.571	103.97
239.803	91.69
240.035	60.97
240.267	93.73
240.498	97.83
240.73	116.26
240.962	46.63
241.193	75.3
241.425	89.64
241.656	71.21
241.888	77.35
242.119	87.59
242.351	79.4
242.582	106.02
242.814	58.92
243.045	114.21
243.277	54.82
243.508	67.11
243.739	77.35
243.971	93.73
244.202	175.65
244.433	91.69
244.664	58.92
244.896	165.41
245.127	67.11
245.358	91.69
245.589	65.06
245.82	34.34
246.051	136.74
246.282	116.26
246.513	83.49
246.744	110.12
246.975	60.97
247.206	75.3
247.437	79.4
247.668	63.01
247.899	73.25
248.129	116.26
248.36	50.73
248.591	132.65
248.822	99.88
249.052	175.65
249.283	130.6
249.514	79.4
249.744	-31.19
249.975	157.22
250.206	28.2
250.436	34.34
250.667	42.53
250.897	126.5
251.128	91.69
251.358	110.12
251.589	67.11
251.819	118.31
252.049	126.5
252.28	42.53
252.51	114.21
252.74	75.3
252.971	42.53
253.201	-4.57
253.431	42.53
253.661	42.53
253.891	79.4
254.121	77.35
254.352	103.97
254.582	50.73
254.812	24.1
255.042	44.58
255.272	69.16
255.502	46.63
255.732	140.84
255.962	106.02
256.192	38.44
256.421	63.01
256.651	-12.76
256.881	87.59
257.111	87.59
257.341	17.96
257.57	101.93
257.8	38.44
258.03	1.58
258.259	99.88
258.489	69.16
258.719	75.3
258.948	85.54
259.178	124.45
259.407	58.92
259.637	99.88
259.866	58.92
260.096	65.06
260.325	69.16
260.555	110.12
260.784	87.59
261.013	52.77
261.243	52.77
261.472	116.26
261.701	165.41
261.931	138.79
262.16	52.77
262.389	52.77
262.618	63.01
262.847	73.25
263.076	69.16
263.305	163.36
263.535	116.26
263.764	54.82
263.993	75.3
264.222	75.3
264.451	58.92
264.679	60.97
264.908	60.97
265.137	58.92
265.366	116.26
265.595	79.4
265.824	87.59
266.053	9.77
266.281	60.97
266.51	52.77
266.739	28.2
266.967	93.73
267.196	118.31
267.425	87.59
267.653	26.15
267.882	103.97
268.11	155.17
268.339	20.01
268.567	83.49
268.796	-6.62
269.024	77.35
269.253	36.39
269.481	103.97
269.709	161.32
269.938	38.44
270.166	69.16
270.394	63.01
270.623	185.89
270.851	20.01
271.079	157.22
271.307	99.88
271.535	42.53
271.764	91.69
271.992	91.69
272.22	124.45
272.448	116.26
272.676	140.84
272.904	79.4
273.132	97.83
273.36	79.4
273.588	116.26
273.816	56.87
274.043	81.45
274.271	65.06
274.499	112.17
274.727	52.77
274.955	149.03
275.182	149.03
275.41	67.11
275.638	85.54
275.866	167.46
276.093	165.41
276.321	126.5
276.548	87.59
276.776	30.25
277.003	134.69
277.231	69.16
277.458	73.25
277.686	83.49
277.913	7.72
278.141	136.74
278.368	22.06
278.595	67.11
278.823	110.12
279.05	167.46
279.277	63.01
279.505	101.93
279.732	34.34
279.959	40.49
280.186	71.21
280.413	89.64
280.641	42.53
280.868	71.21
281.095	46.63
281.322	108.07
281.549	60.97
281.776	116.26
282.003	83.49
282.23	40.49
282.457	136.74
282.683	112.17
282.91	75.3
283.137	-61.91
283.364	36.39
283.591	87.59
283.818	153.13
284.044	24.1
284.271	77.35
284.498	91.69
284.724	77.35
284.951	46.63
285.178	146.98
285.404	73.25
285.631	28.2
285.857	140.84
286.084	155.17
286.31	97.83
286.537	65.06
286.763	75.3
286.99	124.45
287.216	83.49
287.442	71.21
287.669	63.01
287.895	99.88
288.121	142.89
288.347	75.3
288.574	-0.47
288.8	128.55
289.026	116.26
289.252	79.4
289.478	192.04
289.704	93.73
289.931	75.3
290.157	58.92
290.383	46.63
290.609	136.74
290.835	73.25
291.06	71.21
291.286	99.88
291.512	173.6
291.738	140.84
291.964	83.49
292.19	54.82
292.416	52.77
292.641	83.49
292.867	75.3
293.093	79.4
293.319	93.73
293.544	30.25
293.77	77.35
293.995	89.64
294.221	83.49
294.447	63.01
294.672	114.21
294.898	91.69
295.123	120.36
295.349	99.88
295.574	67.11
295.799	87.59
296.025	83.49
296.25	149.03
296.476	95.78
296.701	142.89
296.926	87.59
297.151	165.41
297.377	124.45
297.602	87.59
297.827	93.73
298.052	56.87
298.277	116.26
298.502	71.21
298.727	83.49
298.953	52.77
299.178	124.45
299.403	79.4
299.628	69.16
299.852	185.89
300.077	108.07
300.302	89.64
300.527	124.45
300.752	138.79
300.977	108.07
301.202	71.21
301.426	87.59
301.651	75.3
301.876	50.73
302.101	110.12
302.325	116.26
302.55	103.97
302.775	91.69
302.999	77.35
303.224	83.49
303.448	124.45
303.673	120.36
303.897	112.17
304.122	136.74
304.346	99.88
304.571	50.73
304.795	79.4
305.019	77.35
305.244	93.73
305.468	67.11
305.692	42.53
305.917	91.69
306.141	20.01
306.365	67.11
306.589	116.26
306.813	87.59
307.038	157.22
307.262	126.5
307.486	144.93
307.71	91.69
307.934	99.88
308.158	63.01
308.382	69.16
308.606	110.12
308.83	177.7
309.054	1.58
309.278	101.93
309.502	26.15
309.725	183.84
309.949	83.49
310.173	108.07
310.397	40.49
310.62	75.3
310.844	110.12
311.068	118.31
311.292	63.01
311.515	128.55
311.739	58.92
311.962	126.5
312.186	83.49
312.41	110.12
312.633	46.63
312.857	93.73
313.08	134.69
313.303	32.29
313.527	91.69
313.75	118.31
313.974	120.36
314.197	3.62
314.42	134.69
314.644	63.01
314.867	60.97
315.09	103.97
315.313	28.2
315.536	75.3
315.76	42.53
315.983	128.55
316.206	140.84
316.429	118.31
316.652	75.3
316.875	52.77
317.098	69.16
317.321	52.77
317.544	134.69
317.767	91.69
317.99	75.3
318.213	116.26
318.436	99.88
318.658	101.93
318.881	63.01
319.104	20.01
319.327	124.45
319.55	87.59
319.772	124.45
319.995	50.73
320.218	146.98
320.44	134.69
320.663	136.74
320.885	157.22
321.108	146.98
321.331	116.26
321.553	132.65
321.776	91.69
321.998	1.58
322.22	120.36
322.443	175.65
322.665	30.25
322.888	69.16
323.11	77.35
323.332	108.07
323.555	34.34
323.777	120.36
323.999	44.58
324.221	177.7
324.443	71.21
324.666	-25.05
324.888	93.73
325.11	112.17
325.332	-6.62
325.554	116.26
325.776	58.92
325.998	110.12
326.22	118.31
326.442	116.26
326.664	54.82
326.886	99.88
327.108	7.72
327.33	91.69
327.551	58.92
327.773	124.45
327.995	60.97
328.217	136.74
328.439	83.49
328.66	67.11
328.882	112.17
329.104	63.01
329.325	32.29
329.547	220.71
329.769	116.26
329.99	116.26
330.212	50.73
330.433	134.69
330.655	110.12
330.876	63.01
331.098	9.77
331.319	52.77
331.54	99.88
331.762	75.3
331.983	99.88
332.204	118.31
332.426	77.35
332.647	116.26
332.868	63.01
333.089	69.16
333.311	120.36
333.532	153.13
333.753	54.82
333.974	93.73
334.195	69.16
334.416	91.69
334.637	118.31
334.858	157.22
335.079	110.12
335.3	120.36
335.521	122.41
335.742	101.93
335.963	116.26
336.184	106.02
336.405	83.49
336.626	87.59
336.846	151.08
337.067	108.07
337.288	-2.52
337.509	99.88
337.729	151.08
337.95	5.67
338.171	87.59
338.391	79.4
338.612	134.69
338.833	140.84
339.053	116.26
339.274	36.39
339.494	67.11
339.715	60.97
339.935	42.53
340.156	159.27
340.376	149.03
340.596	167.46
340.817	108.07
341.037	159.27
341.257	44.58
341.478	28.2
341.698	108.07
341.918	118.31
342.138	58.92
342.359	134.69
342.579	112.17
342.799	103.97
343.019	50.73
343.239	175.65
343.459	91.69
343.679	122.41
343.899	99.88
344.119	101.93
344.339	75.3
344.559	124.45
344.779	75.3
344.999	124.45
345.219	46.63
345.439	118.31
345.658	161.32
345.878	91.69
346.098	132.65
346.318	185.89
346.537	83.49
346.757	95.78
346.977	126.5
347.196	73.25
347.416	38.44
347.636	157.22
347.855	124.45
348.075	67.11
348.294	128.55
348.514	101.93
348.733	91.69
348.953	95.78
349.172	60.97
349.392	42.53
349.611	83.49
349.83	52.77
350.05	106.02
350.269	91.69
350.488	101.93
350.707	103.97
350.927	103.97
351.146	44.58
351.365	91.69
351.584	144.93
351.803	124.45
352.023	153.13
352.242	71.21
352.461	99.88
352.68	116.26
352.899	32.29
353.118	194.08
353.337	60.97
353.556	71.21
353.775	101.93
353.993	118.31
354.212	87.59
354.431	146.98
354.65	95.78
354.869	69.16
355.088	67.11
355.306	91.69
355.525	85.54
355.744	-14.81
355.962	126.5
356.181	108.07
356.4	91.69
356.618	93.73
356.837	126.5
357.055	79.4
357.274	144.93
357.492	108.07
357.711	138.79
357.929	87.59
358.148	153.13
358.366	128.55
358.585	101.93
358.803	132.65
359.021	173.6
359.24	149.03
359.458	134.69
359.676	95.78
359.894	95.78
360.113	36.39
360.331	110.12
360.549	46.63
360.767	63.01
360.985	124.45
361.203	87.59
361.421	101.93
361.639	118.31
361.857	99.88
362.075	128.55
362.293	124.45
362.511	132.65
362.729	126.5
362.947	157.22
363.165	54.82
363.383	132.65
363.601	165.41
363.819	63.01
364.036	124.45
364.254	71.21
364.472	124.45
364.689	173.6
364.907	87.59
365.125	91.69
365.342	99.88
365.56	142.89
365.778	165.41
365.995	44.58
366.213	144.93
366.43	50.73
366.648	26.15
366.865	138.79
367.083	67.11
367.3	110.12
367.517	144.93
367.735	167.46
367.952	99.88
368.17	194.08
368.387	155.17
368.604	138.79
368.821	134.69
369.039	118.31
369.256	132.65
369.473	116.26
369.69	206.37
369.907	126.5
370.124	69.16
370.341	48.68
370.558	165.41
370.776	128.55
370.993	124.45
371.21	134.69
371.426	149.03
371.643	60.97
371.86	69.16
372.077	103.97
372.294	173.6
372.511	149.03
372.728	120.36
372.945	83.49
373.161	118.31
373.378	118.31
373.595	114.21
373.811	132.65
374.028	95.78
374.245	163.36
374.461	75.3
374.678	169.51
374.895	157.22
375.111	95.78
375.328	75.3
375.544	136.74
375.761	112.17
375.977	140.84
376.194	58.92
376.41	169.51
376.626	153.13
376.843	91.69
377.059	183.84
377.275	153.13
377.492	142.89
377.708	120.36
377.924	116.26
378.14	185.89
378.357	192.04
378.573	175.65
378.789	83.49
379.005	181.8
379.221	79.4
379.437	126.5
379.653	42.53
379.869	71.21
380.085	132.65
380.301	116.26
380.517	165.41
380.733	146.98
380.949	192.04
381.165	140.84
381.381	124.45
381.597	93.73
381.813	189.99
382.028	124.45
382.244	224.8
382.46	173.6
382.676	159.27
382.891	149.03
383.107	114.21
383.323	233
383.538	173.6
383.754	208.42
383.969	116.26
384.185	157.22
384.4	120.36
384.616	189.99
384.831	138.79
385.047	237.09
385.262	187.94
385.478	181.8
385.693	159.27
385.909	167.46
386.124	198.18
386.339	235.04
386.554	177.7
386.77	189.99
386.985	114.21
387.2	189.99
387.415	206.37
387.631	167.46
387.846	237.09
388.061	159.27
388.276	120.36
388.491	157.22
388.706	161.32
388.921	239.14
389.136	251.43
389.351	173.6
389.566	187.94
389.781	230.95
389.996	239.14
390.211	216.61
390.426	142.89
390.641	255.52
390.855	181.8
391.07	216.61
391.285	251.43
391.5	280.1
391.714	222.76
391.929	239.14
392.144	206.37
392.358	247.33
392.573	263.72
392.788	230.95
393.002	257.57
393.217	335.39
393.431	280.1
393.646	259.62
393.86	261.67
394.075	284.2
394.289	243.24
394.504	253.48
394.718	304.67
394.933	370.21
395.147	325.15
395.361	388.64
395.576	333.35
395.79	349.73
396.004	323.11
396.218	388.64
396.432	370.21
396.647	386.59
396.861	329.25
397.075	368.16
397.289	380.45
397.503	415.27
397.717	378.4
397.931	472.61
398.145	368.16
398.359	468.51
398.573	484.9
398.787	425.5
399.001	513.57
399.215	460.32
399.429	525.86
399.643	503.33
399.857	452.13
400.07	517.66
400.284	521.76
400.498	476.7
400.712	462.37
400.925	640.54
401.139	536.1
401.353	493.09
401.566	638.49
401.78	534.05
401.994	579.1
402.207	593.44
402.421	642.59
402.634	669.21
402.848	689.69
403.061	699.93
403.275	663.07
403.488	691.74
403.702	706.08
403.915	740.89
404.128	831
404.342	699.93
404.555	714.27
404.768	816.67
404.982	861.72
405.195	857.63
405.408	824.86
405.621	933.4
405.835	912.92
406.048	902.68
406.261	839.19
406.474	886.3
406.687	927.26
406.9	1027.61
407.113	927.26
407.326	992.79
407.539	1015.32
407.752	1142.29
407.965	1056.28
408.178	1087
408.391	1058.33
408.604	1136.15
408.817	1150.49
409.029	1205.78
409.242	1168.92
409.455	1259.03
409.668	1213.97
409.881	1381.91
410.093	1322.52
410.306	1271.32
410.519	1306.13
410.731	1349.14
410.944	1377.81
411.157	1375.76
411.369	1459.73
411.582	1400.34
411.794	1605.13
412.007	1418.77
412.219	1570.32
412.432	1449.49
412.644	1527.31
412.857	1529.36
413.069	1738.25
413.281	1607.18
413.494	1570.32
413.706	1639.95
413.918	1668.62
414.131	1740.3
414.343	1754.64
414.555	1738.25
414.767	1803.79
414.979	1672.72
415.192	1801.74
415.404	1961.48
415.616	1873.42
415.828	1869.32
416.04	1840.65
416.252	1762.83
416.464	1934.86
416.676	1879.56
416.888	2098.7
417.1	2084.36
417.312	1992.2
417.524	1961.48
417.736	1953.29
417.948	1973.77
418.159	2237.96
418.371	2063.88
418.583	2131.46
418.795	2078.22
419.007	2123.27
419.218	2117.13
419.43	2205.19
419.642	2258.44
419.853	2248.2
420.065	2217.48
420.276	2182.66
420.488	2444.8
420.7	2332.16
420.911	2283.01
421.123	2354.69
421.334	2237.96
421.546	2395.65
421.757	2242.05
421.969	2332.16
422.18	2307.59
422.391	2450.95
422.603	2496
422.814	2424.32
423.025	2426.37
423.237	2651.65
423.448	2444.8
423.659	2530.82
423.87	2541.06
424.082	2598.4
424.293	2547.2
424.504	2604.54
424.715	2481.67
424.926	2694.65
425.137	2553.34
425.348	2672.13
425.559	2655.74
425.77	2657.79
425.981	2655.74
426.192	2641.41
426.403	2799.1
426.614	2647.55
426.825	2838.01
427.036	2713.09
427.247	2561.54
427.458	2768.38
427.668	2633.22
427.879	2727.42
428.09	2639.36
428.301	2713.09
428.511	2708.99
428.722	2747.9
428.933	2831.87
429.143	2586.11
429.354	2663.93
429.565	2964.99
429.775	2797.05
429.986	2733.57
430.196	2696.7
430.407	2725.37
430.617	2649.6
430.828	2721.28
431.038	2821.63
431.249	2901.5
431.459	2733.57
431.669	2749.95
431.88	2676.22
432.09	2704.89
432.3	2891.26
432.511	2749.95
432.721	2786.81
432.931	2903.55
433.141	2756.09
433.351	2731.52
433.562	2975.23
433.772	2907.64
433.982	2811.39
434.192	2803.2
434.402	2770.43
434.612	2795
434.822	2827.77
435.032	2854.4
435.242	2762.24
435.452	2813.44
435.662	2676.22
435.872	2778.62
436.082	2762.24
436.292	2639.36
436.502	2674.17
436.711	2827.77
436.921	2723.33
437.131	2813.44
437.341	2647.55
437.551	2737.66
437.76	2643.46
437.97	2682.37
438.18	2659.84
438.389	2651.65
438.599	2582.02
438.808	2811.39
439.018	2745.85
439.228	2768.38
439.437	2704.89
439.647	2588.16
439.856	2672.13
440.066	2610.69
440.275	2700.8
440.484	2715.13
440.694	2635.26
440.903	2696.7
441.113	2600.45
441.322	2651.65
441.531	2592.26
441.741	2815.48
441.95	2584.06
442.159	2655.74
442.368	2749.95
442.577	2723.33
442.787	2426.37
442.996	2676.22
443.205	2762.24
443.414	2723.33
443.623	2592.26
443.832	2631.17
444.041	2737.66
444.25	2686.46
444.459	2602.5
444.668	2403.84
444.877	2672.13
445.086	2487.81
445.295	2455.04
445.504	2684.41
445.713	2557.44
445.922	2680.32
446.13	2545.15
446.339	2467.33
446.548	2452.99
446.757	2641.41
446.965	2496
447.174	2606.59
447.383	2475.52
447.591	2387.46
447.8	2389.51
448.009	2475.52
448.217	2477.57
448.426	2620.93
448.634	2334.21
448.843	2551.3
449.051	2346.5
449.26	2459.14
449.468	2526.72
449.677	2526.72
449.885	2463.23
450.093	2606.59
450.302	2469.38
450.51	2622.98
450.719	2360.84
450.927	2446.85
451.135	2567.68
451.343	2428.42
451.552	2328.07
451.76	2405.89
451.968	2493.95
452.176	2520.58
452.384	2381.32
452.592	2491.91
452.8	2516.48
453.009	2553.34
453.217	2524.67
453.425	2393.6
453.633	2428.42
453.841	2524.67
454.049	2493.95
454.257	2565.63
454.464	2346.5
454.672	2502.15
454.88	2469.38
455.088	2524.67
455.296	2412.03
455.504	2504.19
455.711	2409.99
455.919	2590.21
456.127	2432.51
456.335	2551.3
456.542	2436.61
456.75	2528.77
456.958	2467.33
457.165	2551.3
457.373	2493.95
457.581	2463.23
457.788	2618.88
457.996	2516.48
458.203	2477.57
458.411	2608.64
458.618	2409.99
458.826	2352.64
459.033	2715.13
459.24	2518.53
459.448	2692.61
459.655	2565.63
459.863	2641.41
460.07	2674.17
460.277	2491.91
460.484	2483.71
460.692	2567.68
460.899	2702.85
461.106	2491.91
461.313	2708.99
461.52	2579.97
461.728	2532.86
461.935	2651.65
462.142	2690.56
462.349	2469.38
462.556	2731.52
462.763	2616.83
462.97	2780.67
463.177	2594.3
463.384	2731.52
463.591	2688.51
463.798	2674.17
464.005	2770.43
464.212	2772.48
464.418	2524.67
464.625	2819.58
464.832	2688.51
465.039	2655.74
465.246	2895.36
465.452	2934.27
465.659	2819.58
465.866	2813.44
466.072	2790.91
466.279	2881.02
466.486	2819.58
466.692	2797.05
466.899	2825.72
467.105	2864.64
467.312	2762.24
467.519	2874.88
467.725	3024.38
467.931	3003.9
468.138	2854.4
468.344	3065.34
468.551	2983.42
468.757	3165.69
468.964	3163.64
469.17	3122.68
469.376	3218.93
469.583	3204.6
469.789	3200.5
469.995	3311.09
470.201	3243.51
470.408	3200.5
470.614	3255.8
470.82	3403.25
471.026	3427.83
471.232	3225.08
471.438	3325.43
471.644	3497.46
471.85	3442.16
472.056	3397.11
472.262	3606
472.468	3515.89
472.674	3601.9
472.88	3419.64
473.086	3681.78
473.292	3649.01
473.498	3818.99
473.704	3790.32
473.91	3657.2
474.116	3743.21
474.321	3825.13
474.527	3689.97
474.733	4072.94
474.939	3991.02
475.144	4015.59
475.35	3937.77
475.556	3978.73
475.761	4132.33
475.967	4181.48
476.173	3970.54
476.378	4324.84
476.584	4232.68
476.789	4302.31
476.995	4238.82
477.2	4441.57
477.406	4619.74
477.611	4589.03
477.817	4519.39
478.022	4443.62
478.227	4701.66
478.433	4474.34
478.638	4589.03
478.843	4744.67
479.049	4480.48
479.254	4845.02
479.459	4787.68
479.664	5006.81
479.87	4953.56
480.075	4941.28
480.28	5039.58
480.485	4842.97
480.69	4941.28
480.895	5055.96
481.1	5078.49
481.306	5178.84
481.511	5225.94
481.716	5252.57
481.921	5219.8
482.126	5268.95
482.33	5393.88
482.535	5172.7
482.74	5359.06
482.945	5438.93
483.15	5443.03
483.355	5314.01
483.56	5688.78
483.765	5748.18
483.969	5875.15
484.174	5549.52
484.379	5772.75
484.583	5852.62
484.788	5699.02
484.993	5920.21
485.197	5733.84
485.402	6026.7
485.607	6047.18
485.811	6100.43
486.016	5973.45
486.22	6030.8
486.425	6129.1
486.629	5989.84
486.834	6071.75
487.038	6084.04
487.243	6317.51
487.447	6284.74
487.652	6563.27
487.856	6284.74
488.06	6505.92
488.265	6520.26
488.469	6725.06
488.673	6567.36
488.877	6497.73
489.082	6538.69
489.286	6589.89
489.49	6575.56
489.694	6718.91
489.898	6557.12
490.102	6550.98
490.307	6800.83
490.511	6868.41
490.715	6763.97
490.919	6931.9
491.123	6788.54
491.327	7132.6
491.531	6942.14
491.735	7095.74
491.939	7206.33
492.143	7181.75
492.346	7083.45
492.55	7191.99
492.754	6979
492.958	7218.62
493.162	7087.55
493.366	7536.05
493.569	7200.19
493.773	7521.72
493.977	7458.23
494.18	7361.98
494.384	7235
494.588	7697.84
494.791	7419.32
494.995	7570.87
495.199	7562.68
495.402	7790
495.606	7568.82
495.809	7640.5
496.013	7605.68
496.216	7701.94
496.42	7910.83
496.623	8037.8
496.827	7988.65
497.03	8037.8
497.233	7953.84
497.437	8158.63
497.64	8156.59
497.843	8326.57
498.047	8089
498.25	8101.29
498.453	8375.72
498.656	8455.59
498.86	7921.07
499.063	8398.25
499.266	8283.56
499.469	8338.86
499.672	8455.59
499.875	8598.95
500.078	8441.25
500.281	8541.61
500.484	8523.17
500.687	8527.27
500.89	8433.06
501.093	8707.49
501.296	8672.68
501.499	8859.04
501.702	8869.28
501.905	8766.88
502.108	8813.98
502.311	8889.76
502.514	9174.43
502.716	9127.32
502.919	8963.49
503.122	9215.39
503.325	9364.89
503.527	9184.67
503.73	9266.59
503.933	9405.85
504.135	9299.35
504.338	9461.14
504.541	9186.72
504.743	9561.49
504.946	9569.69
505.148	9618.84
505.351	9770.39
505.553	9661.84
505.756	9663.89
505.958	9799.06
506.161	9831.83
506.363	10089.87
506.565	9713.04
506.768	10003.85
506.97	10184.08
507.172	10300.81
507.375	10038.67
507.577	10077.58
507.779	10276.23
507.982	10524.04
508.184	10298.76
508.386	10184.08
508.588	10415.5
508.79	10585.48
508.993	10491.27
509.195	10790.27
509.397	11093.37
509.599	10954.11
509.801	10892.67
510.003	11060.61
510.205	11279.74
510.407	11175.29
510.609	11064.7
510.811	11210.11
511.013	11470.2
511.215	11558.26
511.417	11576.69
511.618	11672.95
511.82	11679.09
512.022	11634.04
512.224	11666.81
512.426	12010.86
512.627	11869.55
512.829	11994.48
513.031	12178.8
513.233	12608.87
513.434	12275.05
513.636	12451.18
513.838	12551.53
514.039	12539.24
514.241	12512.62
514.442	12637.54
514.644	12680.55
514.845	13145.44
515.047	13137.25
515.248	13370.72
515.45	13378.91
515.651	13684.05
515.853	13352.28
516.054	13774.17
516.256	13747.54
516.457	13872.47
516.658	13718.87
516.86	13927.76
517.061	13942.1
517.262	14024.02
517.463	14148.94
517.665	14605.64
517.866	14380.36
518.067	14677.32
518.268	14869.83
518.469	14562.63
518.67	14839.11
518.872	14984.51
519.073	14746.95
519.274	14955.84
519.475	14875.97
519.676	15347.01
519.877	15029.57
520.078	15426.88
520.279	15150.4
520.48	15766.84
520.681	15713.59
520.881	15879.48
521.082	15574.33
521.283	16149.81
521.484	16049.46
521.685	15883.57
521.886	16201.01
522.086	16264.5
522.287	16532.78
522.488	16491.82
522.689	16469.29
522.889	16756.01
523.09	16669.99
523.291	16958.76
523.491	16659.75
523.692	16880.93
523.892	16778.54
524.093	16948.52
524.294	17415.45
524.494	17392.93
524.695	17169.7
524.895	17599.77
525.096	17499.42
525.296	17483.04
525.496	18066.71
525.697	17820.95
525.897	17620.25
526.098	18138.39
526.298	17863.96
526.498	17990.93
526.699	18208.02
526.899	18318.61
527.099	18269.46
527.299	18613.52
527.499	18371.86
527.7	18580.75
527.9	18298.13
528.1	18736.39
528.3	18519.31
528.5	18904.33
528.7	18773.26
528.9	19084.55
529.1	18826.5
529.3	19363.07
529.5	19023.11
529.7	19287.3
529.9	19014.92
530.1	19178.75
530.3	19127.56
530.5	19199.23
530.7	19240.19
530.9	19117.32
531.1	19215.62
531.3	20161.78
531.499	19467.52
531.699	20094.2
531.899	19764.47
532.099	20124.92
532.298	20243.7
532.498	20507.89
532.698	20432.11
532.897	20344.05
533.097	20315.38
533.297	21267.68
533.496	20798.7
533.696	21044.45
533.895	20630.76
534.095	21013.73
534.294	20565.23
534.494	21116.13
534.693	20632.81
534.893	21267.68
535.092	21230.82
535.292	21503.2
535.491	21501.15
535.69	21769.44
535.89	21437.66
536.089	21472.48
536.288	21341.41
536.488	21619.93
536.687	22072.53
536.886	21781.72
537.085	21935.32
537.285	22093.01
537.484	21957.85
537.683	22256.85
537.882	22062.29
538.081	22508.75
538.28	22447.31
538.479	22373.59
538.678	22320.34
538.877	22861
539.076	22873.29
539.275	23243.97
539.474	22883.53
539.673	23198.92
539.872	23012.55
540.071	23448.77
540.27	23334.08
540.469	23375.04
540.668	22996.17
540.867	23612.61
541.065	23293.12
541.264	23823.55
541.463	23377.09
541.662	24005.82
541.861	23598.27
542.059	24104.12
542.258	23766.2
542.457	23942.33
542.655	24431.79
542.854	24224.95
543.052	24095.93
543.251	24540.34
543.45	24315.06
543.648	24270.01
543.847	24425.65
544.045	24595.63
544.244	24753.33
544.442	24937.64
544.641	24782
544.839	25285.8
545.037	24994.99
545.236	25027.75
545.434	24753.33
545.632	25488.55
545.831	25384.1
546.029	25564.32
546.227	25355.43
546.426	26178.71
546.624	25572.51
546.822	25959.58
547.02	26115.22
547.218	26657.94
547.417	26170.52
547.615	26236.06
547.813	26199.19
548.011	26555.54
548.209	26328.21
548.407	26533.01
548.605	26690.7
548.803	27079.82
549.001	27012.24
549.199	27184.26
549.397	26842.25
549.595	27024.52
549.793	26678.42
549.991	26895.5
550.189	26713.23
550.387	27276.42
550.584	27311.24
550.782	27126.92
550.98	27358.34
551.178	27980.92
551.376	27864.19
551.573	27845.76
551.771	27554.95
551.969	28253.3
552.166	28234.87
552.364	28169.34
552.562	28075.13
552.759	28306.55
552.957	27917.44
553.154	27860.09
553.352	27942.01
553.55	28546.16
553.747	28484.72
553.945	28515.44
554.142	28703.86
554.339	29416.55
554.537	29107.31
554.734	29723.75
554.932	29043.82
555.129	29244.52
555.326	29334.63
555.524	29062.25
555.721	29338.73
555.918	29774.95
556.116	29740.13
556.313	29975.65
556.51	29770.85
556.707	30147.68
556.904	30440.53
557.102	30385.24
557.299	30381.14
557.496	30555.22
557.693	30635.09
557.89	30864.46
558.087	30497.88
558.284	31011.92
558.481	29926.49
558.678	30960.72
558.875	30411.86
559.072	30645.33
559.269	31188.04
559.466	31147.08
559.663	30192.73
559.86	31259.72
560.057	31026.25
560.254	31358.02
560.45	31571.01
560.647	31691.84
560.844	30868.56
561.041	31671.36
561.237	31564.87
561.434	32132.16
561.631	31620.16
561.828	32322.62
562.024	31982.66
562.221	32529.46
562.418	32549.94
562.614	32361.53
562.811	32953.39
563.007	33039.41
563.204	32308.28
563.4	33147.95
563.597	32838.71
563.793	33174.57
563.99	33084.46
564.186	33385.51
564.383	32875.57
564.579	33674.28
564.775	33244.2
564.972	33444.91
565.168	33578.02
565.365	33717.28
565.561	32961.58
565.757	33676.33
565.953	32922.67
566.15	33631.27
566.346	33383.47
566.542	33739.81
566.738	33641.51
566.934	33678.37
567.131	33449
567.327	33477.67
567.523	32990.26
567.719	33733.67
567.915	33147.95
568.111	33836.07
568.307	33119.28
568.503	33920.03
568.699	33930.27
568.895	34325.53
569.091	34425.88
569.287	34616.34
569.483	34397.21
569.679	34591.77
569.875	34276.38
570.07	34751.51
570.266	34155.55
570.462	34919.44
570.658	34264.09
570.854	34735.13
571.049	34929.68
571.245	35523.59
571.441	35240.97
571.636	35404.81
571.832	35523.59
572.028	36193.28
572.223	35380.24
572.419	36232.19
572.615	35474.44
572.81	36387.84
573.006	35621.9
573.201	35744.77
573.397	36518.91
573.592	36287.49
573.788	35523.59
573.983	36080.64
574.179	36224
574.374	36420.6
574.569	36420.6
574.765	36221.95
574.96	35468.3
575.156	35861.51
575.351	35779.59
575.546	35925
575.741	36045.83
575.937	36838.39
576.132	35963.91
576.327	36326.4
576.522	35726.34
576.718	35963.91
576.913	36619.26
577.108	36629.5
577.303	36494.33
577.498	37073.91
577.693	36428.8
577.888	36492.28
578.083	36410.36
578.278	36848.63
578.473	36434.94
578.668	36893.68
578.863	36359.16
579.058	36963.32
579.253	36664.31
579.448	36971.51
579.643	37022.71
579.838	37843.94
580.033	37817.32
580.227	37936.1
580.422	37186.54
580.617	37977.06
580.812	37596.14
581.006	37247.98
581.201	37434.35
581.396	37985.25
581.591	37366.77
581.785	37157.87
581.98	37161.97
582.175	37919.72
582.369	38058.98
582.564	38476.76
582.758	38863.83
582.953	38640.6
583.147	37817.32
583.342	38544.35
583.536	38028.26
583.731	38753.24
583.925	38599.64
584.12	39162.83
584.314	38061.03
584.509	38669.27
584.703	38609.88
584.897	39226.32
585.092	39058.39
585.286	38919.13
585.48	38736.86
585.674	38788.06
585.869	38970.32
586.063	39019.48
586.257	38093.79
586.451	38904.79
586.646	38542.3
586.84	38755.29
587.034	38749.14
587.228	39226.32
587.422	38646.75
587.616	39715.79
587.81	39324.62
588.004	39955.4
588.198	38984.66
588.392	39396.3
588.586	38396.89
588.78	39287.76
588.974	38953.94
589.168	39609.29
589.362	39298
589.556	39386.06
589.75	39021.52
589.944	39480.27
590.137	39238.61
590.331	39293.9
590.525	38771.67
590.719	39990.21
590.913	39369.68
591.106	39449.55
591.3	39918.53
591.494	40065.99
591.687	39961.54
591.881	40213.44
592.075	39140.31
592.268	40082.37
592.462	39656.39
592.655	39857.1
592.849	39836.62
593.043	40166.34
593.236	40104.9
593.43	40508.35
593.623	40637.37
593.817	41356.21
594.01	40813.5
594.203	40811.45
594.397	40276.93
594.59	41022.39
594.784	40223.68
594.977	40786.87
595.17	41071.54
595.364	41278.39
595.557	41083.83
595.75	41515.95
595.943	41071.54
596.137	41677.74
596.33	41022.39
596.523	42197.92
596.716	41008.05
596.909	41812.91
597.102	41483.18
597.296	41704.36
597.489	40942.52
597.682	41352.11
597.875	41522.09
598.068	41155.51
598.261	40756.15
598.454	41155.51
598.647	41116.6
598.84	41913.26
599.033	41233.33
599.226	42036.13
599.419	41913.26
599.611	42294.18
599.804	41178.04
599.997	41558.96
600.19	41417.65
600.383	41950.12
600.576	41708.46
600.768	41382.83
600.961	41202.61
601.154	41513.9
601.347	41204.66
601.539	42130.34
601.732	41522.09
601.925	42388.38
602.117	41147.32
602.31	42564.51
602.502	41544.62
602.695	42660.76
602.888	42714.01
603.08	42949.53
603.273	42875.8
603.465	43000.73
603.658	42488.74
603.85	43096.98
604.043	42736.54
604.235	43056.02
604.427	42924.95
604.62	43008.92
604.812	42693.53
605.004	42650.52
605.197	42310.56
605.389	42484.64
605.581	42318.75
605.774	42066.85
605.966	41792.43
606.158	42396.58
606.35	41550.77
606.543	42333.09
606.735	42494.88
606.927	42533.79
607.119	42888.09
607.311	43553.68
607.503	43144.09
607.695	42955.67
607.887	42386.34
608.079	43269.01
608.271	42808.22
608.463	44274.56
608.655	43592.59
608.847	43469.71
609.039	42914.71
609.231	43449.23
609.423	42556.32
609.615	42863.51
609.807	42883.99
609.999	43692.94
610.191	43465.62
610.382	43617.17
610.574	42662.81
610.766	43869.07
610.958	43109.27
611.15	44096.39
611.341	43101.08
611.533	43096.98
611.725	42814.36
611.916	43187.09
612.108	42271.65
612.3	42761.11
612.491	43029.4
612.683	43662.22
612.874	42793.88
613.066	43619.21
613.257	42980.25
613.449	43971.46
613.64	43334.55
613.832	43799.44
614.023	42554.27
614.215	43445.14
614.406	43862.92
614.598	43981.7
614.789	43056.02
614.98	44086.15
615.172	43244.44
615.363	43811.72
615.554	43285.39
615.746	43979.66
615.937	43582.35
616.128	43340.69
616.319	42998.68
616.511	43334.55
616.702	43371.41
616.893	43426.7
617.084	43774.86
617.275	43488.14
617.466	43799.44
617.658	43758.48
617.849	43742.09
618.04	43635.6
618.231	43940.74
618.422	43836.3
618.613	43963.27
618.804	43383.7
618.995	43146.13
619.186	44479.36
619.377	43381.65
619.568	44176.26
619.758	43768.72
619.949	44696.45
620.14	44403.59
620.331	45169.53
620.522	44706.69
620.713	45085.56
620.903	44624.77
621.094	44675.97
621.285	44415.87
621.476	44972.92
621.666	44553.09
621.857	45607.79
622.048	45040.5
622.238	45988.71
622.429	46150.5
622.62	46433.12
622.81	46132.07
623.001	46881.63
623.191	45960.04
623.382	47039.32
623.572	46992.22
623.763	47313.75
623.953	46453.6
624.144	47864.65
624.334	47553.36
624.525	48317.25
624.715	47221.59
624.905	48134.98
625.096	47156.06
625.286	47741.77
625.477	47704.91
625.667	48417.6
625.857	48491.33
626.047	48759.62
626.238	48051.02
626.428	48984.89
626.618	48501.57
626.808	49709.87
626.999	49040.19
627.189	49437.49
627.379	49691.44
627.569	49707.82
627.759	49214.26
627.949	49724.21
628.139	49494.84
628.329	50336.55
628.519	49691.44
628.709	50463.53
628.899	49677.11
629.089	50690.85
629.279	49765.17
629.469	50531.11
629.659	49830.7
629.849	50527.01
630.039	49978.16
630.229	50484.01
630.419	49406.77
630.609	49730.35
630.798	49879.85
630.988	50522.92
631.178	50094.89
631.368	50787.1
631.557	50174.76
631.747	50524.96
631.937	50088.75
632.127	51059.48
632.316	49220.41
632.506	50944.8
632.696	50084.65
632.885	50721.57
633.075	50195.24
633.264	49746.74
633.454	49707.82
633.643	50713.38
633.833	50279.21
634.022	51149.59
634.212	50316.07
634.401	51221.27
634.591	50486.05
634.78	51319.58
634.97	50371.37
635.159	50987.81
635.348	50615.08
635.538	50506.53
635.727	50787.1
635.916	50133.8
636.106	49611.57
636.295	49527.6
636.484	48958.27
636.674	49943.34
636.863	49720.11
637.052	50303.78
637.241	49994.54
637.43	51084.06
637.619	50055.98
637.809	50531.11
637.998	50625.31
638.187	50195.24
638.376	49509.17
638.565	49816.37
638.754	49705.78
638.943	49986.35
639.132	49363.77
639.321	50019.12
639.51	49066.81
639.699	49052.47
639.888	49273.66
640.077	49929.01
640.266	49345.33
640.455	49482.55
640.643	49197.88
640.832	50125.61
641.021	48978.75
641.21	49695.54
641.399	48175.94
641.587	49238.84
641.776	49720.11
641.965	49261.37
642.154	49531.7
642.342	49066.81
642.531	48085.83
642.72	48581.44
642.908	48282.44
643.097	48370.5
643.286	48143.18
643.474	48943.93
643.663	48816.96
643.851	48888.64
644.04	47960.91
644.228	48524.1
644.417	47881.04
644.605	48282.44
644.794	47854.41
644.982	48880.45
645.171	48431.94
645.359	48675.65
645.547	47815.5
645.736	48368.45
645.924	47881.04
646.112	48466.76
646.301	48304.97
646.489	48450.37
646.677	48204.62
646.866	48673.6
647.054	48032.59
647.242	48153.42
647.43	47395.67
647.618	48724.8
647.807	49017.66
647.995	48640.83
648.183	47973.2
648.371	48143.18
648.559	47356.76
648.747	48134.98
648.935	47702.86
649.123	47676.24
649.311	47274.84
649.499	47676.24
649.687	47995.72
649.875	48653.12
650.063	47526.74
650.251	47936.33
650.439	47752.01
650.627	47960.91
650.815	47829.84
651.003	48175.94
651.191	47352.66
651.378	47463.25
651.566	46316.39
651.754	47432.53
651.942	46979.93
652.13	47278.93
652.317	46740.32
652.505	46994.27
652.693	47039.32
652.88	47272.79
653.068	47194.97
653.256	47192.92
653.443	47403.86
653.631	47467.35
653.819	47018.84
654.006	48061.26
654.194	47047.51
654.381	47700.82
654.569	47059.8
654.756	47319.89
654.944	46889.82
655.131	47360.85
655.319	46822.24
655.506	47295.32
655.693	46816.09
655.881	47379.28
656.068	47330.13
656.256	47412.05
656.443	47805.26
656.63	48560.96
656.818	47657.81
657.005	48677.7
657.192	47778.64
657.379	48192.33
657.567	47201.11
657.754	48216.9
657.941	47631.18
658.128	47706.96
658.315	47348.56
658.502	47684.43
658.69	47184.73
658.877	47532.88
659.064	46734.17
659.251	47557.46
659.438	47547.22
659.625	48227.14
659.812	47928.14
659.999	48433.99
660.186	47768.4
660.373	48102.22
660.56	47381.33
660.747	46938.97
660.934	46687.07
661.121	47127.38
661.308	46742.37
661.494	46306.15
661.681	47733.58
661.868	47364.95
662.055	46728.03
662.242	47522.64
662.428	46914.4
662.615	47262.55
662.802	46809.95
662.989	47758.16
663.175	46996.31
663.362	47625.04
663.549	46502.75
663.735	47188.82
663.922	46975.83
664.109	46926.68
664.295	46730.08
664.482	47426.39
664.668	46840.67
664.855	47448.92
665.041	46496.61
665.228	46762.85
665.414	45982.57
665.601	46472.03
665.787	46246.76
665.974	46265.19
666.16	45996.91
666.347	47160.15
666.533	45906.79
666.719	47094.62
666.906	46717.79
667.092	46699.36
667.278	46228.33
667.465	46453.6
667.651	45910.89
667.837	47450.96
668.023	46627.68
668.21	46932.83
668.396	46308.2
668.582	46725.98
668.768	46388.07
668.954	46881.63
669.14	45609.84
669.327	45896.56
669.513	45515.63
669.699	46410.6
669.885	45871.98
670.071	47233.88
670.257	46437.22
670.443	46619.49
670.629	45847.4
670.815	46429.03
671.001	46064.49
671.187	46431.07
671.373	45446
671.559	46054.25
671.744	45314.93
671.93	45648.75
672.116	46207.85
672.302	46060.39
672.488	45267.83
672.674	45968.23
672.859	45355.89
673.045	46365.54
673.231	45648.75
673.417	46379.88
673.602	45273.97
673.788	46601.06
673.974	46472.03
674.159	46355.3
674.345	45831.02
674.531	46322.53
674.716	45276.02
674.902	45937.51
675.087	45161.33
675.273	46082.92
675.459	45015.93
675.644	46058.34
675.83	45699.95
676.015	45888.36
676.2	45630.32
676.386	45925.23
676.571	45583.22
676.757	46564.19
676.942	46021.48
677.128	47350.61
677.313	46816.09
677.498	47274.84
677.684	46717.79
677.869	46734.17
678.054	46220.13
678.24	46177.13
678.425	45327.22
678.61	45878.12
678.795	45273.97
678.98	45570.93
679.166	44442.5
679.351	44841.85
679.536	44766.08
679.721	45648.75
679.906	45181.81
680.091	45366.13
680.276	45222.77
680.461	45474.67
680.647	45011.83
680.832	46349.16
681.017	45198.2
681.202	45699.95
681.387	44952.44
681.572	45382.51
681.756	45083.51
681.941	45579.12
682.126	44891
682.311	44972.92
682.496	44553.09
682.681	44911.48
682.866	44848
683.051	44743.55
683.235	43965.32
683.42	45118.33
683.605	45071.22
683.79	44641.15
683.974	44661.63
684.159	45523.82
684.344	44596.09
684.529	45472.63
684.713	43973.51
684.898	44690.3
685.083	44465.02
685.267	44497.79
685.452	44030.86
685.636	44176.26
685.821	43813.77
686.005	43475.86
686.19	42988.44
686.375	43850.63
686.559	43572.11
686.744	43840.39
686.928	43600.78
687.112	44454.79
687.297	43957.13
687.481	44710.78
687.666	44225.41
687.85	45011.83
688.034	44602.24
688.219	45290.36
688.403	44768.12
688.587	44620.67
688.772	44465.02
688.956	44721.02
689.14	44086.15
689.324	44727.16
689.509	44229.51
689.693	44735.36
689.877	44471.17
690.061	44628.86
690.245	44313.48
690.43	44503.94
690.614	44309.38
690.798	44979.07
690.982	44227.46
691.166	45175.67
691.35	43828.11
691.534	44383.11
691.718	43754.38
691.902	44671.87
692.086	43709.32
692.27	43606.93
692.454	42853.27
692.638	43750.28
692.822	43727.76
693.006	44008.33
693.19	43238.29
693.373	43783.05
693.557	42957.72
693.741	43738
693.925	42965.91
694.109	43453.33
694.293	43152.28
694.476	43426.7
694.66	42834.84
694.844	43508.62
695.027	42621.85
695.211	43537.3
695.395	42808.22
695.578	43463.57
695.762	42326.95
695.946	42687.39
696.129	42052.52
696.313	42185.64
696.497	42079.14
696.68	42574.75
696.864	41778.09
697.047	42144.68
697.231	41284.53
697.414	41991.08
697.598	41659.31
697.781	42109.86
697.965	41880.49
698.148	42007.46
698.331	41352.11
698.515	42128.29
698.698	41376.69
698.881	42709.92
699.065	41464.75
699.248	42163.11
699.431	41896.87
699.615	42062.76
699.798	41405.36
699.981	41558.96
700.165	41665.45
700.348	41810.86
700.531	41020.34
700.714	41591.72
700.897	41116.6
701.08	41663.4
701.264	40618.94
701.447	40678.33
701.63	40905.66
701.813	41413.55
701.996	40692.67
702.179	40899.51
702.362	41020.34
702.545	41245.62
702.728	41487.28
702.911	41864.1
703.094	41237.43
703.277	41675.69
703.46	40258.5
703.643	40868.79
703.826	40088.52
704.009	40958.9
704.191	40215.49
704.374	40420.29
704.557	39312.34
704.74	40426.43
704.923	40102.85
705.106	40117.19
705.288	39683.02
705.471	39965.64
705.654	39652.3
705.837	39740.36
706.019	39955.4
706.202	39975.88
706.385	39959.49
706.567	40297.41
706.75	39891.91
706.932	40260.55
707.115	39314.38
707.298	39031.76
707.48	38663.13
707.663	37927.91
707.845	37829.61
708.028	38460.38
708.21	37723.11
708.393	38325.21
708.575	37721.06
708.758	37827.56
708.94	37680.1
709.123	38487
709.305	37706.73
709.487	37790.69
709.67	37637.1
709.852	38038.5
710.034	38228.96
710.217	38669.27
710.399	38126.56
710.581	38530.01
710.764	37864.42
710.946	38177.76
711.128	37323.76
711.31	37981.16
711.492	37305.33
711.675	37923.81
711.857	37223.41
712.039	37479.4
712.221	36903.92
712.403	37422.06
712.585	36781.05
712.767	37280.75
712.949	36221.95
713.131	36043.78
713.314	36391.93
713.496	36887.54
713.678	36348.92
713.86	36885.49
714.041	36991.99
714.223	37510.12
714.405	36592.63
714.587	37112.82
714.769	36525.05
714.951	36781.05
715.133	36035.59
715.315	36555.77
715.497	35621.9
715.678	36133.89
715.86	36029.44
716.042	36357.12
716.224	35947.52
716.406	36291.58
716.587	36242.43
716.769	35912.71
716.951	35447.82
717.132	35838.98
717.314	34872.34
717.496	35548.17
717.677	35394.57
717.859	35515.4
718.041	35181.58
718.222	35732.49
718.404	34743.32
718.585	35484.68
718.767	34937.87
718.948	34991.12
719.13	34423.83
719.311	34583.58
719.493	34313.24
719.674	34710.55
719.856	34311.2
720.037	34303
720.219	33856.55
720.4	34632.73
720.581	34108.45
720.763	34225.18
720.944	33606.69
721.125	34622.49
721.307	33633.32
721.488	33594.41
721.669	33903.65
721.85	34237.47
722.032	33721.38
722.213	33688.61
722.394	33455.14
722.575	33614.89
722.756	33326.12
722.938	33190.96
723.119	32721.97
723.3	32371.77
723.481	31796.29
723.662	32746.55
723.843	32076.86
724.024	32511.03
724.205	32302.14
724.386	32820.27
724.567	31925.31
724.748	32531.51
724.929	32375.87
725.11	32732.21
725.291	32091.2
725.472	33317.93
725.653	32554.04
725.834	32957.49
726.015	32312.38
726.196	32502.84
726.377	32013.37
726.557	31749.19
726.738	30966.86
726.919	31304.78
727.1	30788.69
727.281	30897.23
727.461	30397.53
727.642	30350.42
727.823	30237.79
728.004	30657.62
728.184	30252.12
728.365	30547.03
728.546	30235.74
728.726	30465.11
728.907	30096.48
729.087	30655.57
729.268	29951.07
729.449	30473.3
729.629	30049.37
729.81	30354.52
729.99	30440.53
730.171	30362.71
730.351	29903.97
730.532	30454.87
730.712	29527.14
730.893	29891.68
731.073	29322.34
731.253	29197.42
731.434	28806.26
731.614	28865.65
731.795	28152.95
731.975	29379.69
732.155	28638.32
732.336	28824.69
732.516	28130.43
732.696	28894.32
732.876	28570.74
733.057	28916.85
733.237	28451.96
733.417	28961.9
733.597	28107.9
733.778	28656.75
733.958	28056.7
734.138	28548.21
734.318	27710.59
734.498	27825.28
734.678	27120.78
734.858	27477.12
735.038	27192.46
735.218	27456.64
735.398	27153.55
735.579	26946.7
735.759	26776.72
735.939	26893.45
736.119	26623.12
736.298	26766.48
736.478	26438.8
736.658	26823.82
736.838	26602.64
737.018	26170.52
737.198	26025.11
737.378	26191
737.558	25885.85
737.738	26119.32
737.917	25660.58
738.097	25785.5
738.277	25441.44
738.457	25625.76
738.637	25265.32
738.816	24941.74
738.996	24970.41
739.176	25429.16
739.355	24964.27
739.535	25584.8
739.715	24833.2
739.894	25455.78
740.074	24777.9
740.254	24994.99
740.433	25111.72
740.613	25130.15
740.792	24960.17
740.972	24767.66
741.151	24409.27
741.331	24853.68
741.51	24984.75
741.69	24804.52
741.869	24057.02
742.049	24351.92
742.228	24028.34
742.408	23989.43
742.587	23690.43
742.766	23743.68
742.946	23911.61
743.125	23477.44
743.305	23409.86
743.484	23289.03
743.663	23164.1
743.842	23176.39
744.022	22691.02
744.201	23416
744.38	22836.43
744.56	22910.15
744.739	22559.95
744.918	22901.96
745.097	22869.19
745.276	22807.76
745.455	22287.57
745.635	22449.36
745.814	22260.95
745.993	22449.36
746.172	21920.98
746.351	22602.96
746.53	22566.1
746.709	22357.2
746.888	22625.49
747.067	22367.44
747.246	21787.87
747.425	22369.49
747.604	21955.8
747.783	21890.27
747.962	21757.15
748.141	21941.46
748.32	21912.79
748.499	22269.14
748.677	22258.9
748.856	22301.91
749.035	22095.06
749.214	22531.28
749.393	22379.73
749.572	22525.14
749.75	22328.53
749.929	22283.48
750.108	21994.71
750.287	22885.58
750.465	22088.92
750.644	22602.96
750.823	22351.06
751.001	22566.1
751.18	22457.55
751.359	22512.85
751.537	22064.34
751.716	22387.92
751.894	22179.03
752.073	22537.42
752.251	21845.21
752.43	21822.68
752.609	21832.92
752.787	21718.24
752.966	21839.07
753.144	22136.02
753.322	22109.4
753.501	21851.35
753.679	21716.19
753.858	22213.84
754.036	21808.35
754.215	22144.21
754.393	21728.48
754.571	21984.47
754.75	21517.54
754.928	21726.43
755.106	21578.97
755.284	21765.34
755.463	21460.19
755.641	21923.03
755.819	21689.56
755.997	21650.65
756.176	21335.27
756.354	21912.79
756.532	21247.2
756.71	21388.51
756.888	21179.62
757.066	21187.81
757.245	21124.33
757.423	21521.63
757.601	20958.44
757.779	21206.24
757.957	21167.33
758.135	21120.23
758.313	20999.4
758.491	21335.27
758.669	20569.33
758.847	20892.9
759.025	20593.9
759.203	20554.99
759.381	20055.29
759.559	20350.19
759.737	20344.05
759.915	20487.41
760.092	20247.79
760.27	20544.75
760.448	20047.09
760.626	20204.79
760.804	19959.03
760.981	19787
761.159	19549.44
761.337	19989.75
761.515	19207.43
761.692	19586.3
761.87	19492.09
762.048	19664.12
762.226	19172.61
762.403	19793.15
762.581	19295.49
762.759	19361.02
762.936	19244.29
763.114	19186.95
763.291	18418.96
763.469	18672.91
763.647	18242.83
763.824	18255.12
764.002	17954.07
764.179	18197.78
764.357	17984.79
764.534	17872.15
764.712	17734.94
764.889	17835.29
765.066	17280.29
765.244	17165.6
765.421	16880.93
765.599	16803.11
765.776	16842.02
765.953	16598.31
766.131	16405.81
766.308	16469.29
766.485	16190.77
766.663	16299.31
766.84	16244.02
767.017	16620.84
767.194	16008.5
767.372	16280.88
767.549	15801.65
767.726	15826.23
767.903	15453.5
768.081	15394.11
768.258	15211.84
768.435	15238.46
768.612	14615.88
768.789	14837.06
768.966	14742.85
769.143	14646.6
769.32	14325.07
769.497	14218.57
769.674	13892.95
769.851	14427.47
770.028	13970.77
770.205	13964.63
770.382	13684.05
770.559	13720.92
770.736	13372.76
770.913	13667.67
771.09	13084
771.267	13356.38
771.444	13215.07
771.621	13174.11
771.798	12928.35
771.975	12975.46
772.151	12469.61
772.328	12481.9
772.505	12191.09
772.682	12191.09
772.859	11877.75
773.035	12137.84
773.212	11560.31
773.389	11572.6
773.565	11396.47
773.742	11369.85
773.919	11318.65
774.096	10956.16
774.272	10947.97
774.449	11062.65
774.625	10894.72
774.802	10732.93
774.979	10521.99
775.155	10368.39
775.332	10243.47
775.508	10347.91
775.685	10059.15
775.861	10077.58
776.038	9678.23
776.214	10016.14
776.391	9907.6
776.567	9876.88
776.744	9766.29
776.92	9911.7
777.096	9661.84
777.273	9514.39
777.449	9293.21
777.626	9260.44
777.802	9151.9
777.978	9127.32
778.155	8711.59
778.331	8871.33
778.507	8662.44
778.683	8617.38
778.86	8506.79
779.036	8574.37
779.212	8342.95
779.388	8158.63
779.565	8316.33
779.741	8095.15
779.917	8109.48
780.093	8086.96
780.269	7726.51
780.445	7695.79
780.621	7867.82
780.797	7859.63
780.974	7376.31
781.15	7714.23
781.326	7691.7
781.502	7480.76
781.678	7230.91
781.854	7398.84
782.03	7022.01
782.206	7112.12
782.382	6981.05
782.558	7183.8
782.733	6870.46
782.909	7032.25
783.085	6866.37
783.261	6849.98
783.437	6892.99
783.613	6911.42
783.789	6860.22
783.965	6929.85
784.14	6677.95
784.316	6772.16
784.492	6294.98
784.668	6581.7
784.843	6211.02
785.019	6467.01
785.195	6292.94
785.371	6305.22
785.546	6362.57
785.722	6129.1
785.898	6153.67
786.073	6127.05
786.249	5862.86
786.424	5891.53
786.6	5729.74
786.776	5756.37
786.951	5553.62
787.127	5481.94
787.302	5391.83
787.478	5473.75
787.653	5389.78
787.829	5275.09
788.004	5293.53
788.18	5023.19
788.355	5219.8
788.531	5170.65
788.706	5000.67
788.881	5051.87
789.057	4990.43
789.232	4877.79
789.408	4752.86
789.583	4941.28
789.758	4785.63
789.934	4761.05
790.109	4670.94
790.284	4677.09
790.459	4515.3
790.635	4720.1
790.81	4451.81
790.985	4494.82
791.16	4390.37
791.336	4505.06
791.511	4195.82
791.686	4298.21
791.861	4312.55
792.036	4146.66
792.211	4105.7
792.387	4120.04
792.562	4081.13
792.737	4134.38
792.912	3892.72
793.087	3878.38
793.262	3872.24
793.437	3954.16
793.612	3794.41
793.787	3888.62
793.962	3829.23
794.137	3671.54
794.312	3712.49
794.487	3622.38
794.662	3757.55
794.837	3585.52
795.011	3755.5
795.186	3755.5
795.361	3671.54
795.536	3622.38
795.711	3620.34
795.886	3497.46
796.06	3528.18
796.235	3411.44
796.41	3380.72
796.585	3409.4
796.76	3487.22
796.934	3352.05
797.109	3270.13
797.284	3155.45
797.458	3198.45
797.633	3259.89
797.808	3163.64
797.982	3192.31
798.157	3214.84
798.332	3108.34
798.506	3085.82
798.681	3065.34
798.855	3061.24
799.03	3089.91
799.204	2950.65
799.379	3091.96
799.553	2967.03
799.728	2930.17
799.902	2942.46
800.077	2928.12
800.251	2840.06
800.426	2999.8
800.6	2815.48
800.775	2921.98
800.949	2704.89
801.123	2782.72
801.298	2735.61
801.472	2737.66
801.647	2805.24
801.821	2692.61
801.995	2842.11
802.169	2711.04
802.344	2641.41
802.518	2706.94
802.692	2565.63
802.867	2651.65
803.041	2561.54
803.215	2715.13
803.389	2674.17
803.563	2594.3
803.737	2676.22
803.912	2584.06
804.086	2584.06
804.26	2639.36
804.434	2459.14
804.608	2426.37
804.782	2430.47
804.956	2612.74
805.13	2549.25
805.304	2450.95
805.478	2448.9
805.652	2487.81
805.826	2459.14
806	2479.62
806.174	2461.19
806.348	2405.89
806.522	2344.45
806.696	2381.32
806.87	2285.06
807.044	2287.11
807.218	2254.34
807.392	2565.63
807.566	2364.93
807.739	2389.51
807.913	2438.66
808.087	2344.45
808.261	2340.36
808.435	2323.97
808.608	2319.88
808.782	2250.25
808.956	2258.44
809.13	2321.92
809.303	2205.19
809.477	2303.49
809.651	2364.93
809.824	2344.45
809.998	2258.44
810.172	2356.74
810.345	2323.97
810.519	2199.05
810.692	2205.19
810.866	2395.65
811.04	2250.25
811.213	2311.68
811.387	2305.54
811.56	2405.89
811.734	2246.15
811.907	2237.96
812.081	2305.54
812.254	2287.11
812.428	2272.77
812.601	2309.64
812.774	2323.97
812.948	2336.26
813.121	2287.11
813.295	2264.58
813.468	2354.69
813.641	2246.15
813.815	2319.88
813.988	2326.02
814.161	2221.57
814.335	2287.11
814.508	2205.19
814.681	2258.44
814.854	2278.92
815.028	2201.09
815.201	2207.24
815.374	2160.13
815.547	2153.99
815.72	2266.63
815.894	2219.53
816.067	2180.61
816.24	2184.71
816.413	2229.77
816.586	2174.47
816.759	2184.71
816.932	2207.24
817.105	2106.89
817.278	2295.3
817.452	2266.63
817.625	2237.96
817.798	2227.72
817.971	2223.62
818.144	2223.62
818.317	2106.89
818.49	2180.61
818.662	2262.53
818.835	2237.96
819.008	2272.77
819.181	2199.05
819.354	2147.85
819.527	2274.82
819.7	2223.62
819.873	2268.68
820.046	2184.71
820.218	2147.85
820.391	2225.67
820.564	2319.88
820.737	2123.27
820.909	2205.19
821.082	2123.27
821.255	2108.94
821.428	2123.27
821.6	2160.13
821.773	2131.46
821.946	2287.11
822.118	2156.04
822.291	2137.61
822.464	2074.12
822.636	2256.39
822.809	2096.65
822.982	2174.47
823.154	2172.42
823.327	2164.23
823.499	2182.66
823.672	2127.37
823.844	2096.65
824.017	2098.7
824.189	2016.78
824.362	2188.81
824.534	2076.17
824.707	2149.89
824.879	2082.31
825.052	2100.74
825.224	2172.42
825.396	2209.29
825.569	2090.5
825.741	2237.96
825.914	2098.7
826.086	2110.98
826.258	2180.61
826.431	2125.32
826.603	2082.31
826.775	2049.54
826.947	2012.68
827.12	2053.64
827.292	2029.06
827.464	2008.58
827.636	2067.98
827.809	2067.98
827.981	2094.6
828.153	2065.93
828.325	2033.16
828.497	2160.13
828.669	2143.75
828.842	2057.74
829.014	2098.7
829.186	2029.06
829.358	2057.74
829.53	2043.4
829.702	1994.25
829.874	2074.12
830.046	2033.16
830.218	1965.58
830.39	1936.91
830.562	1979.91
830.734	1920.52
830.906	2053.64
831.078	1902.09
831.25	2008.58
831.422	1967.63
831.594	1936.91
831.766	1902.09
831.937	1930.76
832.109	1926.67
832.281	1893.9
832.453	1955.34
832.625	1967.63
832.797	1947.15
832.968	1861.13
833.14	1873.42
833.312	1887.75
833.484	1787.4
833.655	1943.05
833.827	1852.94
833.999	1852.94
834.171	1838.6
834.342	1875.47
834.514	1936.91
834.686	1869.32
834.857	1783.31
835.029	1945.1
835.2	1910.28
835.372	1822.22
835.544	1820.17
835.715	1861.13
835.887	1732.11
836.058	1863.18
836.23	1707.53
836.401	1797.64
836.573	1852.94
836.744	1877.51
836.916	1709.58
837.087	1852.94
837.259	1797.64
837.43	1773.07
837.602	1713.68
837.773	1824.27
837.945	1754.64
838.116	1775.12
838.287	1760.78
838.459	1801.74
838.63	1787.4
838.801	1754.64
838.973	1814.03
839.144	1693.2
839.315	1771.02
839.487	1807.88
839.658	1723.92
839.829	1771.02
840	1713.68
840.172	1697.29
840.343	1779.21
840.514	1807.88
840.685	1744.4
840.856	1730.06
841.027	1658.38
841.199	1814.03
841.37	1660.43
841.541	1787.4
841.712	1699.34
841.883	1650.19
842.054	1648.14
842.225	1598.99
842.396	1738.25
842.567	1631.76
842.738	1656.33
842.909	1584.66
843.08	1594.9
843.251	1527.31
843.422	1621.52
843.593	1652.24
843.764	1627.66
843.935	1555.98
844.106	1570.32
844.277	1568.27
844.448	1508.88
844.619	1519.12
844.79	1576.46
844.96	1609.23
845.131	1562.13
845.302	1500.69
845.473	1435.15
845.644	1517.07
845.814	1553.94
845.985	1558.03
846.156	1459.73
846.327	1476.11
846.497	1398.29
846.668	1490.45
846.839	1469.97
847.01	1439.25
847.18	1431.06
847.351	1467.92
847.522	1279.51
847.692	1377.81
847.863	1320.47
848.033	1369.62
848.204	1340.95
848.375	1338.9
848.545	1283.6
848.716	1320.47
848.886	1345.04
849.057	1306.13
849.227	1404.43
849.398	1410.58
849.568	1263.12
849.739	1353.23
849.909	1275.41
850.08	1197.59
850.25	1230.36
850.421	1261.08
850.591	1275.41
850.761	1193.49
850.932	1402.39
851.102	1246.74
851.272	1216.02
851.443	1226.26
851.613	1156.63
851.783	1138.2
851.954	1304.08
852.124	1265.17
852.294	1123.86
852.465	1216.02
852.635	1236.5
852.805	1224.21
852.975	1181.21
853.145	1111.57
853.316	1111.57
853.486	1164.82
853.656	1082.9
853.826	1226.26
853.996	1181.21
854.166	1193.49
854.337	1101.33
854.507	1148.44
854.677	1095.19
854.847	1138.2
855.017	1115.67
855.187	1035.8
855.357	1097.24
855.527	1123.86
855.697	1021.46
855.867	1029.66
856.037	1101.33
856.207	1033.75
856.377	1005.08
856.547	1050.14
856.717	1041.94
856.887	886.3
857.057	921.11
857.227	998.94
857.397	1074.71
857.566	962.07
857.736	939.55
857.906	968.22
858.076	923.16
858.246	986.65
858.416	880.15
858.585	945.69
858.755	953.88
858.925	814.62
859.095	943.64
859.264	886.3
859.434	890.39
859.604	902.68
859.774	884.25
859.943	951.83
860.113	912.92
860.283	935.45
860.452	849.43
860.622	914.97
860.791	978.46
860.961	931.35
861.131	927.26
861.3	890.39
861.47	919.07
861.639	941.59
861.809	880.15
861.978	874.01
862.148	906.78
862.318	886.3
862.487	882.2
862.657	804.38
862.826	744.99
862.995	775.71
863.165	882.2
863.334	820.76
863.504	863.77
863.673	839.19
863.843	820.76
864.012	865.82
864.181	853.53
864.351	806.43
864.52	886.3
864.689	894.49
864.859	824.86
865.028	765.47
865.197	718.36
865.366	744.99
865.536	806.43
865.705	753.18
865.874	828.95
866.043	708.12
866.213	783.9
866.382	798.24
866.551	675.36
866.72	820.76
866.889	828.95
867.059	718.36
867.228	775.71
867.397	833.05
867.566	755.23
867.735	886.3
867.904	755.23
868.073	806.43
868.242	683.55
868.411	708.12
868.58	710.17
868.749	755.23
868.918	755.23
869.087	650.78
869.256	706.08
869.425	736.8
869.594	671.26
869.763	585.25
869.932	642.59
870.101	667.17
870.27	665.12
870.439	624.16
870.608	634.4
870.777	644.64
870.945	673.31
871.114	693.79
871.283	669.21
871.452	654.88
871.621	710.17
871.789	650.78
871.958	566.81
872.127	607.77
872.296	661.02
872.464	701.98
872.633	615.97
872.802	665.12
872.971	607.77
873.139	632.35
873.308	613.92
873.477	677.41
873.645	511.52
873.814	587.29
873.983	609.82
874.151	634.4
874.32	599.58
874.488	626.21
874.657	661.02
874.826	577.05
874.994	611.87
875.163	544.29
875.331	640.54
875.5	601.63
875.668	607.77
875.837	648.73
876.005	681.5
876.174	632.35
876.342	648.73
876.51	587.29
876.679	548.38
876.847	532
877.016	634.4
877.184	562.72
877.352	654.88
877.521	570.91
877.689	534.05
877.857	497.18
878.026	575.01
878.194	620.06
878.362	568.86
878.531	587.29
878.699	575.01
878.867	575.01
879.036	575.01
879.204	544.29
879.372	542.24
879.54	509.47
879.708	556.57
879.877	560.67
880.045	552.48
880.213	521.76
880.381	560.67
880.549	544.29
880.717	493.09
880.885	546.34
881.054	532
881.222	534.05
881.39	566.81
881.558	462.37
881.726	536.1
881.894	552.48
882.062	466.46
882.23	427.55
882.398	615.97
882.566	538.14
882.734	468.51
882.902	515.62
883.07	493.09
883.238	511.52
883.406	550.43
883.574	497.18
883.741	577.05
883.909	577.05
884.077	575.01
884.245	550.43
884.413	527.9
884.581	568.86
884.749	507.42
884.916	527.9
885.084	536.1
885.252	599.58
885.42	464.42
885.587	577.05
885.755	591.39
885.923	515.62
886.091	597.53
886.258	546.34
886.426	591.39
886.594	517.66
886.761	470.56
886.929	517.66
887.097	534.05
887.264	493.09
887.432	480.8
887.6	452.13
887.767	448.03
887.935	513.57
888.102	509.47
888.27	552.48
888.438	476.7
888.605	472.61
888.773	538.14
888.94	509.47
889.108	394.79
889.275	474.66
889.443	546.34
889.61	493.09
889.778	468.51
889.945	534.05
890.112	509.47
890.28	431.65
890.447	431.65
890.615	464.42
890.782	534.05
890.949	484.9
891.117	577.05
891.284	509.47
891.452	501.28
891.619	591.39
891.786	476.7
891.953	529.95
892.121	466.46
892.288	443.94
892.455	452.13
892.623	443.94
892.79	423.46
892.957	456.22
893.124	411.17
893.291	421.41
893.459	503.33
893.626	415.27
893.793	540.19
893.96	521.76
894.127	493.09
894.294	495.14
894.461	439.84
894.629	425.5
894.796	454.18
894.963	443.94
895.13	476.7
895.297	435.74
895.464	448.03
895.631	425.5
895.798	505.38
895.965	472.61
896.132	480.8
896.299	558.62
896.466	443.94
896.633	419.36
896.8	511.52
896.967	458.27
897.134	448.03
897.301	517.66
897.467	413.22
897.634	423.46
897.801	413.22
897.968	400.93
898.135	501.28
898.302	468.51
898.469	529.95
898.635	441.89
898.802	456.22
898.969	431.65
899.136	460.32
899.303	495.14
