Data from light_USB4E013581_00006.txt Node
Date: Wed May 08 15:04:40 EDT 2019
User: dh1006
Spectrometer: USB4E01358
Autoset integration time: false
Trigger mode: 4
Integration Time (sec): 2.925000E-2
Scans to average: 1
Electric dark correction enabled: true
Nonlinearity correction enabled: false
Boxcar width: 0
Stray light correction enabled: false
XAxis mode: Wavelengths
Stop averaging: false
Number of Pixels in Spectrum: 3648
>>>>>Begin Spectral Data<<<<<
176.727	-35.92
176.966	-35.92
177.205	-35.92
177.444	-52.3
177.683	0.95
177.922	54.19
178.161	2.99
178.4	-1.1
178.638	-15.44
178.877	62.38
179.116	-11.34
179.355	46
179.593	21.42
179.832	13.23
180.071	23.47
180.309	58.29
180.548	39.86
180.786	78.77
181.025	84.91
181.263	70.58
181.502	72.62
181.74	41.9
181.979	119.73
182.217	111.54
182.456	213.93
182.694	172.97
182.932	127.92
183.17	39.86
183.409	95.15
183.647	127.92
183.885	97.2
184.123	91.06
184.361	93.1
184.6	111.54
184.838	86.96
185.076	41.9
185.314	78.77
185.552	99.25
185.79	107.44
186.028	62.38
186.266	72.62
186.503	89.01
186.741	66.48
186.979	136.11
187.217	52.14
187.455	72.62
187.693	107.44
187.93	37.81
188.168	136.11
188.406	78.77
188.643	140.21
188.881	64.43
189.119	68.53
189.356	119.73
189.594	56.24
189.831	140.21
190.069	82.86
190.306	33.71
190.543	80.82
190.781	62.38
191.018	58.29
191.256	191.41
191.493	144.3
191.73	70.58
191.967	132.02
192.205	91.06
192.442	99.25
192.679	134.06
192.916	95.15
193.153	78.77
193.39	80.82
193.628	60.34
193.865	62.38
194.102	84.91
194.339	97.2
194.576	181.17
194.813	29.62
195.049	99.25
195.286	62.38
195.523	95.15
195.76	54.19
195.997	68.53
196.234	121.78
196.47	66.48
196.707	29.62
196.944	25.52
197.18	111.54
197.417	97.2
197.654	103.34
197.89	46
198.127	82.86
198.363	54.19
198.6	86.96
198.836	172.97
199.073	80.82
199.309	172.97
199.546	50.1
199.782	64.43
200.018	121.78
200.255	89.01
200.491	129.97
200.727	121.78
200.963	23.47
201.199	172.97
201.436	39.86
201.672	95.15
201.908	54.19
202.144	46
202.38	125.87
202.616	9.14
202.852	91.06
203.088	132.02
203.324	127.92
203.56	43.95
203.796	95.15
204.032	70.58
204.268	89.01
204.503	158.64
204.739	152.49
204.975	95.15
205.211	99.25
205.446	95.15
205.682	99.25
205.918	78.77
206.153	154.54
206.389	89.01
206.625	103.34
206.86	56.24
207.096	136.11
207.331	46
207.567	62.38
207.802	78.77
208.037	111.54
208.273	103.34
208.508	97.2
208.744	52.14
208.979	103.34
209.214	121.78
209.449	111.54
209.685	68.53
209.92	29.62
210.155	91.06
210.39	125.87
210.625	80.82
210.86	136.11
211.095	160.69
211.33	101.3
211.565	58.29
211.8	78.77
212.035	72.62
212.27	193.45
212.505	91.06
212.74	95.15
212.975	64.43
213.21	86.96
213.444	86.96
213.679	179.12
213.914	95.15
214.149	95.15
214.383	107.44
214.618	101.3
214.853	123.82
215.087	144.3
215.322	111.54
215.556	56.24
215.791	156.59
216.025	168.88
216.26	29.62
216.494	179.12
216.729	105.39
216.963	101.3
217.197	91.06
217.432	82.86
217.666	86.96
217.9	121.78
218.135	86.96
218.369	103.34
218.603	125.87
218.837	99.25
219.071	52.14
219.306	62.38
219.54	187.31
219.774	70.58
220.008	66.48
220.242	91.06
220.476	50.1
220.71	64.43
220.944	76.72
221.178	95.15
221.411	74.67
221.645	91.06
221.879	78.77
222.113	48.05
222.347	80.82
222.58	129.97
222.814	103.34
223.048	97.2
223.281	97.2
223.515	113.58
223.749	103.34
223.982	52.14
224.216	103.34
224.449	80.82
224.683	129.97
224.916	111.54
225.15	164.78
225.383	72.62
225.617	103.34
225.85	48.05
226.083	125.87
226.317	64.43
226.55	78.77
226.783	127.92
227.016	74.67
227.25	177.07
227.483	78.77
227.716	74.67
227.949	119.73
228.182	29.62
228.415	132.02
228.648	97.2
228.881	86.96
229.114	95.15
229.347	115.63
229.58	64.43
229.813	76.72
230.046	74.67
230.279	78.77
230.512	95.15
230.745	132.02
230.977	52.14
231.21	136.11
231.443	111.54
231.675	78.77
231.908	144.3
232.141	113.58
232.373	121.78
232.606	103.34
232.839	125.87
233.071	168.88
233.304	127.92
233.536	82.86
233.769	152.49
234.001	93.1
234.233	70.58
234.466	97.2
234.698	101.3
234.93	162.73
235.163	74.67
235.395	99.25
235.627	64.43
235.86	70.58
236.092	-9.29
236.324	119.73
236.556	119.73
236.788	58.29
237.02	86.96
237.252	82.86
237.484	109.49
237.716	158.64
237.948	127.92
238.18	86.96
238.412	82.86
238.644	80.82
238.876	78.77
239.108	129.97
239.34	105.39
239.571	119.73
239.803	146.35
240.035	103.34
240.267	160.69
240.498	127.92
240.73	148.4
240.962	78.77
241.193	103.34
241.425	80.82
241.656	72.62
241.888	123.82
242.119	138.16
242.351	136.11
242.582	148.4
242.814	72.62
243.045	111.54
243.277	70.58
243.508	46
243.739	76.72
243.971	97.2
244.202	105.39
244.433	111.54
244.664	-9.29
244.896	52.14
245.127	138.16
245.358	127.92
245.589	52.14
245.82	115.63
246.051	80.82
246.282	97.2
246.513	113.58
246.744	97.2
246.975	27.57
247.206	89.01
247.437	156.59
247.668	82.86
247.899	93.1
248.129	101.3
248.36	54.19
248.591	177.07
248.822	103.34
249.052	148.4
249.283	129.97
249.514	97.2
249.744	80.82
249.975	111.54
250.206	58.29
250.436	103.34
250.667	144.3
250.897	156.59
251.128	86.96
251.358	60.34
251.589	80.82
251.819	117.68
252.049	168.88
252.28	21.42
252.51	119.73
252.74	146.35
252.971	89.01
253.201	107.44
253.431	43.95
253.661	89.01
253.891	58.29
254.121	41.9
254.352	168.88
254.582	103.34
254.812	148.4
255.042	140.21
255.272	146.35
255.502	113.58
255.732	138.16
255.962	62.38
256.192	121.78
256.421	152.49
256.651	89.01
256.881	103.34
257.111	56.24
257.341	187.31
257.57	103.34
257.8	33.71
258.03	41.9
258.259	107.44
258.489	72.62
258.719	103.34
258.948	127.92
259.178	144.3
259.407	146.35
259.637	86.96
259.866	152.49
260.096	95.15
260.325	29.62
260.555	138.16
260.784	39.86
261.013	66.48
261.243	70.58
261.472	86.96
261.701	132.02
261.931	86.96
262.16	211.89
262.389	82.86
262.618	95.15
262.847	78.77
263.076	136.11
263.305	197.55
263.535	54.19
263.764	70.58
263.993	70.58
264.222	144.3
264.451	132.02
264.679	162.73
264.908	111.54
265.137	95.15
265.366	78.77
265.595	129.97
265.824	54.19
266.053	127.92
266.281	99.25
266.51	113.58
266.739	72.62
266.967	123.82
267.196	138.16
267.425	103.34
267.653	72.62
267.882	123.82
268.11	54.19
268.339	74.67
268.567	121.78
268.796	91.06
269.024	121.78
269.253	107.44
269.481	142.26
269.709	64.43
269.938	115.63
270.166	119.73
270.394	86.96
270.623	54.19
270.851	105.39
271.079	82.86
271.307	89.01
271.535	15.28
271.764	74.67
271.992	127.92
272.22	43.95
272.448	76.72
272.676	111.54
272.904	195.5
273.132	33.71
273.36	111.54
273.588	107.44
273.816	146.35
274.043	41.9
274.271	70.58
274.499	82.86
274.727	152.49
274.955	27.57
275.182	82.86
275.41	136.11
275.638	105.39
275.866	97.2
276.093	172.97
276.321	95.15
276.548	86.96
276.776	54.19
277.003	127.92
277.231	203.69
277.458	86.96
277.686	107.44
277.913	48.05
278.141	58.29
278.368	211.89
278.595	89.01
278.823	132.02
279.05	119.73
279.277	97.2
279.505	97.2
279.732	136.11
279.959	144.3
280.186	154.54
280.413	70.58
280.641	107.44
280.868	66.48
281.095	97.2
281.322	123.82
281.549	103.34
281.776	119.73
282.003	134.06
282.23	187.31
282.457	226.22
282.683	226.22
282.91	107.44
283.137	127.92
283.364	119.73
283.591	76.72
283.818	111.54
284.044	52.14
284.271	154.54
284.498	86.96
284.724	70.58
284.951	160.69
285.178	70.58
285.404	80.82
285.631	105.39
285.857	105.39
286.084	56.24
286.31	144.3
286.537	107.44
286.763	185.26
286.99	154.54
287.216	105.39
287.442	129.97
287.669	105.39
287.895	39.86
288.121	70.58
288.347	123.82
288.574	127.92
288.8	160.69
289.026	91.06
289.252	148.4
289.478	138.16
289.704	140.21
289.931	123.82
290.157	74.67
290.383	105.39
290.609	175.02
290.835	115.63
291.06	95.15
291.286	111.54
291.512	113.58
291.738	185.26
291.964	160.69
292.19	99.25
292.416	119.73
292.641	107.44
292.867	142.26
293.093	82.86
293.319	121.78
293.544	179.12
293.77	111.54
293.995	136.11
294.221	152.49
294.447	162.73
294.672	168.88
294.898	48.05
295.123	129.97
295.349	115.63
295.574	89.01
295.799	107.44
296.025	86.96
296.25	156.59
296.476	103.34
296.701	160.69
296.926	119.73
297.151	86.96
297.377	105.39
297.602	119.73
297.827	132.02
298.052	99.25
298.277	111.54
298.502	99.25
298.727	127.92
298.953	113.58
299.178	144.3
299.403	70.58
299.628	177.07
299.852	152.49
300.077	136.11
300.302	127.92
300.527	136.11
300.752	95.15
300.977	160.69
301.202	105.39
301.426	127.92
301.651	80.82
301.876	48.05
302.101	62.38
302.325	183.21
302.55	152.49
302.775	115.63
302.999	66.48
303.224	119.73
303.448	93.1
303.673	78.77
303.897	136.11
304.122	76.72
304.346	113.58
304.571	152.49
304.795	91.06
305.019	80.82
305.244	115.63
305.468	115.63
305.692	105.39
305.917	125.87
306.141	103.34
306.365	138.16
306.589	101.3
306.813	164.78
307.038	103.34
307.262	74.67
307.486	138.16
307.71	103.34
307.934	109.49
308.158	193.45
308.382	99.25
308.606	103.34
308.83	99.25
309.054	127.92
309.278	111.54
309.502	150.45
309.725	58.29
309.949	136.11
310.173	172.97
310.397	89.01
310.62	129.97
310.844	162.73
311.068	136.11
311.292	89.01
311.515	111.54
311.739	95.15
311.962	144.3
312.186	62.38
312.41	123.82
312.633	80.82
312.857	78.77
313.08	115.63
313.303	50.1
313.527	113.58
313.75	129.97
313.974	160.69
314.197	117.68
314.42	103.34
314.644	70.58
314.867	101.3
315.09	70.58
315.313	170.93
315.536	154.54
315.76	99.25
315.983	136.11
316.206	132.02
316.429	76.72
316.652	62.38
316.875	158.64
317.098	95.15
317.321	62.38
317.544	181.17
317.767	205.74
317.99	152.49
318.213	117.68
318.436	76.72
318.658	146.35
318.881	158.64
319.104	144.3
319.327	162.73
319.55	78.77
319.772	107.44
319.995	160.69
320.218	160.69
320.44	152.49
320.663	136.11
320.885	89.01
321.108	136.11
321.331	89.01
321.553	82.86
321.776	97.2
321.998	64.43
322.22	162.73
322.443	119.73
322.665	152.49
322.888	54.19
323.11	103.34
323.332	158.64
323.555	103.34
323.777	113.58
323.999	56.24
324.221	146.35
324.443	70.58
324.666	152.49
324.888	205.74
325.11	103.34
325.332	86.96
325.554	107.44
325.776	82.86
325.998	150.45
326.22	72.62
326.442	168.88
326.664	39.86
326.886	125.87
327.108	91.06
327.33	132.02
327.551	78.77
327.773	158.64
327.995	105.39
328.217	129.97
328.439	66.48
328.66	193.45
328.882	177.07
329.104	123.82
329.325	136.11
329.547	89.01
329.769	89.01
329.99	152.49
330.212	33.71
330.433	125.87
330.655	115.63
330.876	86.96
331.098	105.39
331.319	175.02
331.54	119.73
331.762	164.78
331.983	111.54
332.204	66.48
332.426	136.11
332.647	144.3
332.868	123.82
333.089	78.77
333.311	138.16
333.532	168.88
333.753	107.44
333.974	144.3
334.195	119.73
334.416	121.78
334.637	121.78
334.858	95.15
335.079	9.14
335.3	127.92
335.521	121.78
335.742	142.26
335.963	119.73
336.184	160.69
336.405	187.31
336.626	164.78
336.846	86.96
337.067	89.01
337.288	84.91
337.509	136.11
337.729	156.59
337.95	72.62
338.171	91.06
338.391	185.26
338.612	84.91
338.833	91.06
339.053	142.26
339.274	148.4
339.494	119.73
339.715	107.44
339.935	54.19
340.156	168.88
340.376	154.54
340.596	134.06
340.817	99.25
341.037	177.07
341.257	181.17
341.478	103.34
341.698	168.88
341.918	70.58
342.138	80.82
342.359	140.21
342.579	82.86
342.799	177.07
343.019	123.82
343.239	132.02
343.459	127.92
343.679	189.36
343.899	148.4
344.119	70.58
344.339	136.11
344.559	123.82
344.779	164.78
344.999	136.11
345.219	82.86
345.439	197.55
345.658	138.16
345.878	99.25
346.098	138.16
346.318	177.07
346.537	136.11
346.757	160.69
346.977	111.54
347.196	103.34
347.416	86.96
347.636	140.21
347.855	156.59
348.075	172.97
348.294	154.54
348.514	150.45
348.733	203.69
348.953	168.88
349.172	127.92
349.392	113.58
349.611	33.71
349.83	113.58
350.05	185.26
350.269	146.35
350.488	152.49
350.707	123.82
350.927	187.31
351.146	84.91
351.365	95.15
351.584	160.69
351.803	107.44
352.023	70.58
352.242	113.58
352.461	160.69
352.68	111.54
352.899	115.63
353.118	105.39
353.337	179.12
353.556	148.4
353.775	111.54
353.993	136.11
354.212	179.12
354.431	111.54
354.65	93.1
354.869	148.4
355.088	136.11
355.306	125.87
355.525	127.92
355.744	58.29
355.962	234.41
356.181	160.69
356.4	103.34
356.618	64.43
356.837	168.88
357.055	82.86
357.274	134.06
357.492	197.55
357.711	177.07
357.929	154.54
358.148	119.73
358.366	80.82
358.585	115.63
358.803	158.64
359.021	168.88
359.24	209.84
359.458	152.49
359.676	156.59
359.894	103.34
360.113	123.82
360.331	56.24
360.549	80.82
360.767	113.58
360.985	78.77
361.203	136.11
361.421	152.49
361.639	170.93
361.857	95.15
362.075	154.54
362.293	193.45
362.511	123.82
362.729	117.68
362.947	144.3
363.165	91.06
363.383	86.96
363.601	125.87
363.819	99.25
364.036	70.58
364.254	103.34
364.472	111.54
364.689	152.49
364.907	113.58
365.125	78.77
365.342	105.39
365.56	136.11
365.778	23.47
365.995	185.26
366.213	86.96
366.43	148.4
366.648	103.34
366.865	129.97
367.083	172.97
367.3	132.02
367.517	154.54
367.735	111.54
367.952	168.88
368.17	218.03
368.387	119.73
368.604	115.63
368.821	111.54
369.039	189.36
369.256	170.93
369.473	129.97
369.69	144.3
369.907	177.07
370.124	119.73
370.341	168.88
370.558	103.34
370.776	121.78
370.993	158.64
371.21	144.3
371.426	111.54
371.643	138.16
371.86	105.39
372.077	201.65
372.294	175.02
372.511	115.63
372.728	119.73
372.945	121.78
373.161	218.03
373.378	76.72
373.595	93.1
373.811	205.74
374.028	111.54
374.245	95.15
374.461	144.3
374.678	179.12
374.895	138.16
375.111	154.54
375.328	138.16
375.544	144.3
375.761	84.91
375.977	105.39
376.194	136.11
376.41	119.73
376.626	191.41
376.843	168.88
377.059	164.78
377.275	127.92
377.492	136.11
377.708	95.15
377.924	127.92
378.14	78.77
378.357	136.11
378.573	197.55
378.789	168.88
379.005	170.93
379.221	95.15
379.437	158.64
379.653	275.37
379.869	162.73
380.085	101.3
380.301	54.19
380.517	103.34
380.733	115.63
380.949	156.59
381.165	175.02
381.381	172.97
381.597	187.31
381.813	168.88
382.028	177.07
382.244	142.26
382.46	197.55
382.676	222.13
382.891	154.54
383.107	187.31
383.323	242.61
383.538	95.15
383.754	220.08
383.969	140.21
384.185	121.78
384.4	179.12
384.616	201.65
384.831	189.36
385.047	148.4
385.262	234.41
385.478	228.27
385.693	152.49
385.909	125.87
386.124	242.61
386.339	238.51
386.554	242.61
386.77	242.61
386.985	144.3
387.2	177.07
387.415	222.13
387.631	185.26
387.846	234.41
388.061	162.73
388.276	185.26
388.491	183.21
388.706	306.09
388.921	230.32
389.136	181.17
389.351	295.85
389.566	215.98
389.781	277.42
389.996	189.36
390.211	220.08
390.426	193.45
390.641	324.52
390.855	271.28
391.07	285.61
391.285	246.7
391.5	269.23
391.714	234.41
391.929	271.28
392.144	275.37
392.358	318.38
392.573	250.8
392.788	277.42
393.002	357.29
393.217	238.51
393.431	324.52
393.646	320.43
393.86	263.09
394.075	279.47
394.289	392.11
394.504	345
394.718	365.48
394.933	377.77
395.147	357.29
395.361	345
395.576	373.68
395.79	424.87
396.004	373.68
396.218	414.63
396.432	349.1
396.647	390.06
396.861	351.15
397.075	459.69
397.289	443.31
397.503	455.59
397.717	385.96
397.931	398.25
398.145	388.01
398.359	394.16
398.573	402.35
398.787	457.64
399.001	467.88
399.215	582.57
399.429	541.61
399.643	482.22
399.857	453.55
400.07	564.14
400.284	580.52
400.498	488.36
400.712	598.95
400.925	596.9
401.139	553.9
401.353	619.43
401.566	582.57
401.78	650.15
401.994	654.25
402.207	611.24
402.421	662.44
402.634	652.2
402.848	678.82
403.061	611.24
403.275	711.59
403.488	795.56
403.702	777.13
403.915	764.84
404.128	703.4
404.342	795.56
404.555	902.05
404.768	783.27
404.982	832.42
405.195	881.57
405.408	902.05
405.621	930.72
405.835	930.72
406.048	971.68
406.261	891.81
406.474	1012.64
406.687	1031.07
406.9	1057.7
407.113	897.96
407.326	1037.22
407.539	1100.7
407.752	1063.84
407.965	1178.53
408.178	1102.75
408.391	1162.14
408.604	1112.99
408.817	1237.92
409.029	1151.9
409.242	1143.71
409.455	1291.17
409.668	1205.15
409.881	1242.01
410.093	1209.25
410.306	1299.36
410.519	1342.36
410.731	1364.89
410.944	1358.75
411.157	1356.7
411.369	1436.57
411.582	1538.97
411.794	1631.13
412.007	1442.72
412.219	1463.19
412.432	1530.78
412.644	1575.83
412.857	1538.97
413.069	1629.08
413.281	1643.42
413.494	1694.62
413.706	1719.19
413.918	1749.91
414.131	1762.2
414.343	1901.46
414.555	1774.49
414.767	1708.95
414.979	1876.88
415.192	1835.93
415.404	1932.18
415.616	1864.6
415.828	1971.09
416.04	1880.98
416.252	1880.98
416.464	1848.21
416.676	1987.47
416.888	2057.11
417.1	1989.52
417.312	2053.01
417.524	2038.67
417.736	1971.09
417.948	2065.3
418.159	2231.18
418.371	2030.48
418.583	2046.87
418.795	2030.48
419.007	2304.91
419.218	2241.42
419.43	2134.93
419.642	2347.92
419.853	2325.39
420.065	2266
420.276	2290.57
420.488	2298.77
420.7	2298.77
420.911	2349.97
421.123	2392.97
421.334	2343.82
421.546	2315.15
421.757	2409.36
421.969	2370.45
422.18	2278.29
422.391	2405.26
422.603	2409.36
422.814	2614.15
423.025	2478.99
423.237	2454.41
423.448	2458.51
423.659	2642.82
423.87	2519.95
424.082	2610.06
424.293	2497.42
424.504	2661.26
424.715	2521.99
424.926	2536.33
425.137	2620.3
425.348	2614.15
425.559	2587.53
425.77	2655.11
425.981	2560.91
426.192	2720.65
426.403	2800.52
426.614	2565
426.825	2741.13
427.036	2792.33
427.247	2505.61
427.458	2806.66
427.668	2698.12
427.879	2679.69
428.09	2757.51
428.301	3038.08
428.511	2679.69
428.722	2804.61
428.933	2839.43
429.143	2659.21
429.354	2716.55
429.565	2904.96
429.775	2896.77
429.986	2792.33
430.196	2786.18
430.407	2714.5
430.617	2659.21
430.828	2700.17
431.038	2794.37
431.249	2909.06
431.459	2841.48
431.669	2704.26
431.88	2757.51
432.09	2777.99
432.3	2847.62
432.511	2773.89
432.721	2767.75
432.931	2907.01
433.141	2691.98
433.351	2767.75
433.562	2925.44
433.772	2767.75
433.982	2710.41
434.192	2855.81
434.402	2790.28
434.612	2630.54
434.822	2927.49
435.032	2732.94
435.242	2759.56
435.452	2890.63
435.662	2638.73
435.872	2814.85
436.082	2749.32
436.292	2577.29
436.502	2872.2
436.711	2732.94
436.921	2728.84
437.131	2829.19
437.341	2784.13
437.551	2896.77
437.76	2816.9
437.97	2734.98
438.18	2691.98
438.389	2675.59
438.599	2630.54
438.808	2896.77
439.018	2689.93
439.228	2784.13
439.437	2716.55
439.647	2716.55
439.856	2732.94
440.066	2552.71
440.275	2706.31
440.484	2757.51
440.694	2728.84
440.903	2847.62
441.113	2603.91
441.322	2724.74
441.531	2638.73
441.741	2806.66
441.95	2622.35
442.159	2700.17
442.368	2708.36
442.577	2745.22
442.787	2536.33
442.996	2749.32
443.205	2794.37
443.414	2552.71
443.623	2632.59
443.832	2651.02
444.041	2646.92
444.25	2677.64
444.459	2505.61
444.668	2513.8
444.877	2560.91
445.086	2552.71
445.295	2691.98
445.504	2659.21
445.713	2442.12
445.922	2610.06
446.13	2513.8
446.339	2544.52
446.548	2442.12
446.757	2517.9
446.965	2538.38
447.174	2618.25
447.383	2462.6
447.591	2429.84
447.8	2448.27
448.009	2601.87
448.217	2618.25
448.426	2661.26
448.634	2499.47
448.843	2413.45
449.051	2384.78
449.26	2552.71
449.468	2544.52
449.677	2571.15
449.885	2429.84
450.093	2429.84
450.302	2450.32
450.51	2734.98
450.719	2481.04
450.927	2536.33
451.135	2603.91
451.343	2495.37
451.552	2579.34
451.76	2442.12
451.968	2519.95
452.176	2478.99
452.384	2521.99
452.592	2478.99
452.8	2470.8
453.009	2575.24
453.217	2505.61
453.425	2462.6
453.633	2438.03
453.841	2448.27
454.049	2511.75
454.257	2610.06
454.464	2413.45
454.672	2548.62
454.88	2464.65
455.088	2569.1
455.296	2360.21
455.504	2548.62
455.711	2544.52
455.919	2585.48
456.127	2372.49
456.335	2593.67
456.542	2491.28
456.75	2470.8
456.958	2478.99
457.165	2485.13
457.373	2532.23
457.581	2511.75
457.788	2737.03
457.996	2454.41
458.203	2648.97
458.411	2622.35
458.618	2352.01
458.826	2372.49
459.033	2741.13
459.24	2456.46
459.448	2610.06
459.655	2651.02
459.863	2603.91
460.07	2646.92
460.277	2597.77
460.484	2577.29
460.692	2577.29
460.899	2626.44
461.106	2528.14
461.313	2782.09
461.52	2550.67
461.728	2489.23
461.935	2798.47
462.142	2732.94
462.349	2577.29
462.556	2704.26
462.763	2630.54
462.97	2798.47
463.177	2696.07
463.384	2775.94
463.591	2777.99
463.798	2675.59
464.005	2814.85
464.212	2743.18
464.418	2683.78
464.625	2726.79
464.832	2790.28
465.039	2796.42
465.246	2945.92
465.452	2952.07
465.659	2847.62
465.866	2931.59
466.072	2831.24
466.279	3054.47
466.486	2954.12
466.692	2794.37
466.899	2884.49
467.105	2765.7
467.312	2792.33
467.519	2775.94
467.725	2999.17
467.931	3109.76
468.138	2945.92
468.344	3109.76
468.551	2896.77
468.757	3079.04
468.964	3220.35
469.17	3132.29
469.376	3031.94
469.583	3226.5
469.789	3216.26
469.995	3359.61
470.201	3322.75
470.408	3314.56
470.614	3314.56
470.82	3251.07
471.026	3265.41
471.232	3357.57
471.438	3310.46
471.644	3492.73
471.85	3351.42
472.056	3425.15
472.262	3584.89
472.468	3621.75
472.674	3709.82
472.88	3521.4
473.086	3691.38
473.292	3539.84
473.498	3887.99
473.704	3761.02
473.91	3627.9
474.116	3734.39
474.321	3732.34
474.527	3783.54
474.733	3904.37
474.939	4010.87
475.144	3887.99
475.35	3978.1
475.556	4080.5
475.761	4115.31
475.967	4186.99
476.173	4143.99
476.378	4262.77
476.584	4365.17
476.789	4307.82
476.995	4338.54
477.2	4457.33
477.406	4412.27
477.611	4610.92
477.817	4537.2
478.022	4467.57
478.227	4504.43
478.433	4563.82
478.638	4762.47
478.843	4776.81
479.049	4596.59
479.254	4860.78
479.459	4645.74
479.664	4823.91
479.87	4860.78
480.075	4895.59
480.28	4940.65
480.485	4963.17
480.69	5018.47
480.895	5110.63
481.1	5022.56
481.306	5249.89
481.511	5286.75
481.716	5108.58
481.921	5280.61
482.126	5206.88
482.33	5440.35
482.535	5327.71
482.74	5378.91
482.945	5483.36
483.15	5505.89
483.355	5512.03
483.56	5626.72
483.765	5493.6
483.969	5733.21
484.174	5765.98
484.379	5919.57
484.583	5833.56
484.788	5899.1
484.993	5921.62
485.197	5755.74
485.402	5690.2
485.607	5837.66
485.811	5976.92
486.016	5940.05
486.22	5985.11
486.425	6208.34
486.629	6222.67
486.834	6124.37
487.038	6091.6
487.243	6275.92
487.447	6218.58
487.652	6439.76
487.856	6263.63
488.06	6439.76
488.265	6378.32
488.469	6542.16
488.673	6525.77
488.877	6560.59
489.082	6462.29
489.286	6648.65
489.49	6595.4
489.694	6820.68
489.898	6624.08
490.102	6701.9
490.307	6837.06
490.511	6839.11
490.715	6626.12
490.919	6896.46
491.123	6787.91
491.327	7068.49
491.531	6931.27
491.735	7140.16
491.939	7164.74
492.143	7238.47
492.346	7011.14
492.55	7119.68
492.754	7119.68
492.958	7156.55
493.162	7213.89
493.366	7373.63
493.569	7349.06
493.773	7443.26
493.977	7304
494.18	7383.87
494.384	7467.84
494.588	7783.23
494.791	7533.37
494.995	7783.23
495.199	7557.95
495.402	7570.24
495.606	7621.44
495.809	7834.43
496.013	7609.15
496.216	7865.15
496.42	7861.05
496.623	7803.71
496.827	7904.06
497.03	8026.93
497.233	7951.16
497.437	8090.42
497.64	8141.62
497.843	8348.47
498.047	8168.24
498.25	8121.14
498.453	8211.25
498.656	8237.88
498.86	8022.84
499.063	8379.19
499.266	8368.95
499.469	8559.41
499.672	8360.75
499.875	8715.05
500.078	8352.56
500.281	8463.15
500.484	8508.21
500.687	8618.8
500.89	8479.54
501.093	8733.48
501.296	8573.74
501.499	8817.45
501.702	8860.46
501.905	8901.42
502.108	8698.67
502.311	8975.14
502.514	9036.58
502.716	9192.23
502.919	9212.71
503.122	9263.91
503.325	9278.24
503.527	9067.3
503.73	9012.01
503.933	9372.45
504.135	9315.11
504.338	9313.06
504.541	9288.48
504.743	9659.17
504.946	9526.05
505.148	9480.99
505.351	9745.18
505.553	9734.94
505.756	9939.74
505.958	9868.06
506.161	10019.61
506.363	9888.54
506.565	9673.5
506.768	9892.63
506.97	10208.02
507.172	10162.97
507.375	10165.01
507.577	10484.5
507.779	10291.99
507.982	10291.99
508.184	10040.09
508.386	10457.87
508.588	10494.74
508.79	10695.44
508.993	10638.09
509.195	11031.3
509.397	10844.94
509.599	11158.28
509.801	10904.33
510.003	11072.26
510.205	11113.22
510.407	11256.58
510.609	11287.3
510.811	11367.17
511.013	11320.07
511.215	11422.47
511.417	11662.08
511.618	11750.14
511.82	11700.99
512.022	11641.6
512.224	11612.93
512.426	11832.06
512.627	11901.69
512.829	12178.17
513.031	12051.19
513.233	12528.37
513.434	12157.69
513.636	12614.38
513.838	12477.17
514.039	12417.78
514.241	12532.47
514.442	12579.57
514.644	12792.56
514.845	12829.42
515.047	13116.14
515.248	13279.97
515.45	13548.26
515.651	13697.76
515.853	13521.63
516.054	13693.66
516.256	13538.02
516.457	13867.74
516.658	13529.83
516.86	13789.92
517.061	14025.44
517.262	14127.83
517.463	14463.7
517.665	14621.39
517.866	14324.44
518.067	14664.4
518.268	14760.66
518.469	14789.33
518.67	14881.49
518.872	14975.69
519.073	14889.68
519.274	14924.49
519.475	14942.93
519.676	15233.74
519.877	15022.8
520.078	15309.51
520.279	15510.21
520.48	15588.04
520.681	15854.27
520.881	15694.53
521.082	15749.82
521.283	16102.08
521.484	16065.21
521.685	16054.97
521.886	15741.63
522.086	16151.23
522.287	16288.44
522.488	16526.01
522.689	16530.1
522.889	17142.44
523.09	16872.11
523.291	16906.93
523.491	16691.89
523.692	17068.72
523.892	16679.6
524.093	17011.37
524.294	17191.59
524.494	17375.91
524.695	17242.79
524.895	17560.23
525.096	17463.97
525.296	17398.44
525.496	17803.94
525.697	17750.69
525.897	17597.09
526.098	18246.3
526.298	17822.37
526.498	17887.9
526.699	18311.83
526.899	18346.65
527.099	18328.22
527.299	18195.1
527.499	18356.89
527.7	18573.97
527.9	18291.35
528.1	18582.17
528.3	18455.19
528.5	18772.63
528.7	18686.61
528.9	18977.42
529.1	18698.9
529.3	19135.12
529.5	19245.71
529.7	19151.5
529.9	19112.59
530.1	19004.05
530.3	19274.38
530.5	19651.21
530.7	19061.39
530.9	19479.18
531.1	19153.55
531.3	19724.93
531.499	19714.69
531.699	19935.87
531.899	19806.85
532.099	20177.53
532.298	19989.12
532.498	20361.85
532.698	20394.62
532.897	20701.81
533.097	20527.74
533.297	21146.22
533.496	20437.63
533.696	20623.99
533.895	20292.22
534.095	21201.52
534.294	20572.79
534.494	20912.75
534.693	20533.88
534.893	20972.15
535.092	21367.4
535.292	21604.97
535.491	21289.58
535.69	21906.02
535.89	21373.55
536.089	21568.1
536.288	21678.69
536.488	21856.87
536.687	21832.29
536.886	21822.05
537.085	22032.99
537.285	22110.82
537.484	22037.09
537.683	22239.84
537.882	22233.69
538.081	22581.85
538.28	22450.78
538.479	22594.14
538.678	22461.02
538.877	22823.51
539.076	22831.7
539.275	23173.71
539.474	22770.26
539.673	23061.07
539.872	23095.89
540.071	23222.86
540.27	23097.94
540.469	23571.02
540.668	23071.31
540.867	23630.41
541.065	23841.35
541.264	23702.09
541.463	23554.63
541.662	23833.16
541.861	23804.49
542.059	24123.97
542.258	24214.08
542.457	24093.25
542.655	23974.47
542.854	24439.36
543.052	23917.12
543.251	24508.99
543.45	24183.36
543.648	24660.54
543.847	24126.02
544.045	24910.39
544.244	24916.53
544.442	25385.52
544.641	24760.89
544.839	25264.69
545.037	25274.93
545.236	24955.44
545.434	25016.88
545.632	25459.24
545.831	24986.16
546.029	25391.66
546.227	25498.16
546.426	25774.63
546.624	25475.63
546.822	25881.13
547.02	26014.24
547.218	26671.64
547.417	26061.35
547.615	26292.77
547.813	26014.24
548.011	26487.33
548.209	26337.82
548.407	26726.94
548.605	26454.56
548.803	27214.35
549.001	27185.68
549.199	27406.86
549.397	26948.12
549.595	27435.53
549.793	26722.84
549.991	26991.13
550.189	27281.94
550.387	27267.6
550.584	27175.44
550.782	27136.53
550.98	27345.42
551.178	27888.14
551.376	27853.32
551.573	28097.03
551.771	28199.43
551.969	28260.87
552.166	28221.95
552.364	28033.54
552.562	27740.68
552.759	28346.88
552.957	28086.79
553.154	27916.81
553.352	27716.11
553.55	28451.33
553.747	27836.94
553.945	28623.36
554.142	28561.92
554.339	29479.41
554.537	29229.56
554.734	29721.07
554.932	29073.91
555.129	29366.77
555.326	29366.77
555.524	29395.44
555.721	29192.69
555.918	29536.75
556.116	29972.97
556.313	29655.53
556.51	30001.64
556.707	30061.03
556.904	29999.59
557.102	30747.1
557.299	30069.22
557.496	30501.34
557.693	30464.48
557.89	31111.64
558.087	30542.3
558.284	30910.94
558.481	30140.9
558.678	30835.16
558.875	30546.4
559.072	30384.61
559.269	31087.06
559.466	30661.09
559.663	30532.06
559.86	31384.02
560.057	31009.24
560.254	31414.74
560.45	31418.83
560.647	31746.51
560.844	31322.58
561.041	31777.23
561.237	31914.44
561.434	32360.9
561.631	31975.88
561.828	32422.34
562.024	31977.93
562.221	32633.28
562.418	32010.7
562.614	32221.64
562.811	32641.47
563.007	33063.35
563.204	32403.91
563.4	32995.77
563.597	32907.71
563.793	33436.08
563.99	33223.09
564.186	33636.78
564.383	33053.11
564.579	33626.54
564.775	33278.39
564.972	33544.63
565.168	33599.92
565.365	33520.05
565.561	33214.9
565.757	33784.24
565.953	32846.27
566.15	33302.97
566.346	33302.97
566.542	33833.39
566.738	33374.64
566.934	33702.32
567.131	33616.3
567.327	33694.13
567.523	33321.4
567.719	33757.61
567.915	33259.96
568.111	33120.7
568.307	33018.3
568.503	34159.02
568.699	33925.55
568.895	34294.18
569.091	34144.68
569.287	34496.93
569.483	34253.22
569.679	34513.31
569.875	34402.72
570.07	34728.35
570.266	34564.51
570.462	35334.55
570.658	34265.51
570.854	34927
571.049	34840.99
571.245	35029.4
571.441	35076.51
571.636	35608.98
571.832	35266.97
572.028	35946.89
572.223	35088.79
572.419	35791.25
572.615	35584.4
572.81	36297.1
573.006	35369.37
573.201	36049.29
573.397	35946.89
573.592	36477.32
573.788	35864.97
573.983	36071.82
574.179	36364.68
574.374	36340.1
574.569	35922.32
574.765	36735.36
574.96	35774.86
575.156	35948.94
575.351	35469.72
575.546	36153.74
575.741	36104.59
575.937	36684.16
576.132	35846.54
576.327	36616.58
576.522	35619.22
576.718	36571.52
576.913	36497.8
577.108	36612.48
577.303	36516.23
577.498	36886.91
577.693	36573.57
577.888	36290.95
578.083	36168.07
578.278	36766.08
578.473	36383.11
578.668	36882.81
578.863	36401.54
579.058	37409.14
579.253	36411.78
579.448	37511.54
579.643	37282.17
579.838	37806.45
580.033	37730.67
580.227	37890.42
580.422	37134.71
580.617	37841.26
580.812	37337.46
581.006	37681.52
581.201	37579.12
581.396	37890.42
581.591	37337.46
581.785	37159.29
581.98	37349.75
582.175	37411.19
582.369	38498.66
582.564	38357.35
582.758	38820.19
582.953	38328.68
583.147	37960.05
583.342	38623.59
583.536	37960.05
583.731	39059.81
583.925	38545.77
584.12	38789.47
584.314	38093.16
584.509	38760.8
584.703	38787.43
584.897	38900.06
585.092	38744.42
585.286	38732.13
585.48	38513
585.674	38586.72
585.869	38674.79
586.063	38951.26
586.257	38306.15
586.451	38902.11
586.646	38578.53
586.84	38474.09
587.034	38556
587.228	39471.45
587.422	39033.18
587.616	39625.04
587.81	39629.14
588.004	40010.06
588.198	39131.48
588.392	39485.78
588.586	38797.67
588.78	39278.94
588.974	39321.95
589.168	39487.83
589.362	38396.26
589.556	39231.83
589.75	38943.07
589.944	38975.84
590.137	39225.69
590.331	39625.04
590.525	38893.92
590.719	39555.41
590.913	39539.03
591.106	39594.33
591.3	39711.06
591.494	40208.72
591.687	39995.73
591.881	39741.78
592.075	39221.59
592.268	39774.55
592.462	39395.67
592.655	39815.51
592.849	39704.92
593.043	39760.21
593.236	40208.72
593.43	40298.83
593.623	40466.76
593.817	41148.73
594.01	40241.48
594.203	40556.87
594.397	40255.82
594.59	41328.95
594.784	40503.62
594.977	40829.25
595.17	40452.42
595.364	41134.4
595.557	40640.84
595.75	41648.44
595.943	40491.34
596.137	41308.47
596.33	40978.75
596.523	42258.73
596.716	41238.84
596.909	41984.3
597.102	41314.62
597.296	41607.48
597.489	41138.49
597.682	41754.93
597.875	41605.43
598.068	41079.1
598.261	41085.25
598.454	41351.48
598.647	41204.03
598.84	41945.39
599.033	41457.98
599.226	42287.4
599.419	41414.97
599.611	41746.74
599.804	41173.31
599.997	41574.71
600.19	41044.29
600.383	41777.46
600.576	41460.02
600.768	41355.58
600.961	41247.04
601.154	41691.45
601.347	41650.49
601.539	41539.9
601.732	41613.62
601.925	41632.05
602.117	41369.91
602.31	42142
602.502	42000.69
602.695	42887.46
602.888	42397.99
603.08	42584.36
603.273	42877.22
603.465	42717.48
603.658	42721.57
603.85	42928.42
604.043	42621.22
604.235	43299.1
604.427	42793.25
604.62	43358.49
604.812	42705.19
605.004	42152.24
605.197	42279.21
605.389	42365.23
605.581	42017.07
605.774	42232.11
605.966	41677.11
606.158	42518.82
606.35	41435.45
606.543	42350.89
606.735	42567.98
606.927	42334.51
607.119	43370.78
607.311	43579.67
607.503	43204.89
607.695	43223.33
607.887	42885.41
608.079	43303.2
608.271	43122.98
608.463	43981.07
608.655	43456.79
608.847	43303.2
609.039	43067.68
609.231	43045.15
609.423	42928.42
609.615	43319.58
609.807	43258.14
609.999	43757.85
610.191	43442.46
610.382	43725.08
610.574	42895.65
610.766	43591.96
610.958	43190.56
611.15	43106.59
611.341	42430.76
611.533	43333.92
611.725	43041.06
611.916	43319.58
612.108	42793.25
612.3	42793.25
612.491	42787.11
612.683	43428.12
612.874	42963.23
613.066	43534.62
613.257	42985.76
613.449	44306.7
613.64	43356.44
613.832	43546.9
614.023	43057.44
614.215	42879.27
614.406	43985.17
614.598	43841.81
614.789	43471.13
614.98	43989.27
615.172	42965.28
615.363	43854.1
615.554	43254.05
615.746	43893.01
615.937	43575.58
616.128	43518.23
616.319	42758.44
616.511	43329.82
616.702	43360.54
616.893	44030.23
617.084	43673.88
617.275	43780.37
617.466	43264.29
617.658	43774.23
617.849	43114.78
618.04	43671.83
618.231	43688.21
618.422	44247.31
618.613	43641.11
618.804	43505.95
618.995	43546.9
619.186	44394.76
619.377	43520.28
619.568	44052.75
619.758	43723.03
619.949	44534.03
620.14	44075.28
620.331	45011.2
620.522	44873.99
620.713	45220.1
620.903	44742.92
621.094	45248.77
621.285	44937.48
621.476	45449.47
621.666	44673.29
621.857	45463.8
622.048	45428.99
622.238	45539.58
622.429	45719.8
622.62	46145.78
622.81	46162.16
623.001	46842.09
623.191	46127.35
623.382	46977.25
623.572	46342.38
623.763	47356.13
623.953	46313.71
624.144	47565.02
624.334	46797.03
624.525	48189.65
624.715	47327.46
624.905	48085.2
625.096	47442.14
625.286	47450.33
625.477	48077.01
625.667	48433.36
625.857	48484.56
626.047	49012.93
626.238	47962.33
626.428	48834.76
626.618	47714.52
626.808	49524.93
626.999	48732.36
627.189	49545.41
627.379	49055.94
627.569	49924.28
627.759	49219.78
627.949	49752.25
628.139	49305.79
628.329	49752.25
628.519	49455.29
628.709	50481.33
628.899	49832.12
629.089	50501.81
629.279	50145.46
629.469	50563.25
629.659	50020.53
629.849	49750.2
630.039	49240.26
630.229	50038.97
630.419	49426.62
630.609	49711.29
630.798	50114.74
630.988	50383.02
631.178	50391.22
631.368	50596.01
631.557	50227.38
631.747	51140.77
631.937	50610.35
632.127	50849.96
632.316	49273.03
632.506	50995.37
632.696	49959.09
632.885	50286.77
633.075	50307.25
633.264	49957.05
633.454	49561.79
633.643	50325.68
633.833	50587.82
634.022	51304.61
634.212	50606.25
634.401	51101.86
634.591	50659.5
634.78	51050.66
634.97	50378.93
635.159	50800.81
635.348	50481.33
635.538	50849.96
635.727	50297.01
635.916	50399.41
636.106	49244.35
636.295	49490.11
636.484	49105.09
636.674	49684.67
636.863	49045.7
637.052	50260.15
637.241	49727.67
637.43	50616.49
637.619	49803.45
637.809	50706.6
637.998	50534.57
638.187	50014.39
638.376	49664.19
638.565	49932.47
638.754	49719.48
638.943	49920.18
639.132	49240.26
639.321	49797.31
639.51	49162.44
639.699	49658.04
639.888	49569.98
640.077	49948.86
640.266	49141.96
640.455	49707.19
640.643	49236.16
640.832	49711.29
641.021	48771.27
641.21	49535.17
641.399	48707.79
641.587	49621.18
641.776	49238.21
641.965	49807.55
642.154	49780.92
642.342	49414.34
642.531	48400.59
642.72	48691.4
642.908	48031.96
643.097	48750.79
643.286	48240.85
643.474	49084.61
643.663	48644.3
643.851	48920.77
644.04	48433.36
644.228	48222.42
644.417	48124.11
644.605	48251.09
644.794	47806.68
644.982	48904.39
645.171	47804.63
645.359	48677.07
645.547	47851.74
645.736	48488.65
645.924	48072.92
646.112	48156.88
646.301	47980.76
646.489	48269.52
646.677	47917.27
646.866	48351.44
647.054	47675.61
647.242	48357.58
647.43	47702.23
647.618	48595.15
647.807	48519.37
647.995	48752.84
648.183	47904.98
648.371	48158.93
648.559	47610.07
648.747	48222.42
648.935	47599.83
649.123	47818.97
649.311	47083.75
649.499	47745.24
649.687	47991
649.875	48167.12
650.063	47550.68
650.251	47933.65
650.439	47847.64
650.627	48150.74
650.815	48085.2
651.003	48236.75
651.191	46991.59
651.378	47544.54
651.566	46479.6
651.754	47595.74
651.942	47026.4
652.13	47704.28
652.317	46999.78
652.505	47407.33
652.693	47110.37
652.88	47929.56
653.068	47163.62
653.256	47491.29
653.443	47554.78
653.631	47655.13
653.819	47274.21
654.006	47974.61
654.194	47163.62
654.381	47997.14
654.569	46975.2
654.756	47616.22
654.944	46553.32
655.131	47593.69
655.319	46565.61
655.506	47118.56
655.693	46991.59
655.881	47624.41
656.068	47157.47
656.256	47784.15
656.443	47440.09
656.63	48021.72
656.818	47376.61
657.005	48578.76
657.192	47276.26
657.379	48201.94
657.567	47702.23
657.754	48306.38
657.941	48060.63
658.128	47628.51
658.315	47235.3
658.502	47921.37
658.69	46526.7
658.877	47145.19
659.064	46346.48
659.251	47720.67
659.438	47642.84
659.625	48138.45
659.812	47960.28
659.999	48144.59
660.186	47950.04
660.373	47866.07
660.56	46876.9
660.747	47253.73
660.934	47022.31
661.121	47331.55
661.308	46819.56
661.494	46397.68
661.681	47163.62
661.868	47245.54
662.055	46285.04
662.242	47845.59
662.428	46668.01
662.615	47474.91
662.802	47057.12
662.989	47786.2
663.175	47192.29
663.362	47483.1
663.549	47091.94
663.735	47124.71
663.922	47005.92
664.109	47456.48
664.295	47044.84
664.482	47220.96
664.668	46891.24
664.855	47775.96
665.041	45861.11
665.228	47048.93
665.414	46260.46
665.601	46618.86
665.787	45664.5
665.974	46328.05
666.16	46369.01
666.347	47040.74
666.533	46024.95
666.719	47128.8
666.906	46680.3
667.092	46768.36
667.278	46397.68
667.465	46663.91
667.651	45312.25
667.837	47180
668.023	46512.36
668.21	46915.81
668.396	46285.04
668.582	46938.34
668.768	46385.39
668.954	46637.29
669.14	45926.64
669.327	45492.48
669.513	46110.96
669.699	46090.48
669.885	45510.91
670.071	46989.54
670.257	46637.29
670.443	47005.92
670.629	46506.22
670.815	46131.44
671.001	45543.67
671.187	46819.56
671.373	45400.32
671.559	46057.71
671.744	45091.07
671.93	45793.53
672.116	45615.35
672.302	45990.13
672.488	45082.88
672.674	46385.39
672.859	45385.98
673.045	46217.46
673.231	45805.81
673.417	46377.2
673.602	45967.6
673.788	46481.64
673.974	46285.04
674.159	46065.91
674.345	45738.23
674.531	46186.74
674.716	45504.76
674.902	45842.68
675.087	45093.12
675.273	45844.73
675.459	45000.96
675.644	45846.77
675.83	45445.37
676.015	45717.75
676.2	45519.1
676.386	46043.38
676.571	45349.12
676.757	46557.42
676.942	46156.02
677.128	47327.46
677.313	46354.67
677.498	46995.68
677.684	46401.77
677.869	47196.39
678.054	46295.28
678.24	46485.74
678.425	45615.35
678.61	45955.32
678.795	45385.98
678.98	45144.32
679.166	44681.48
679.351	45682.94
679.536	45209.86
679.721	45840.63
679.906	44730.63
680.091	45773.05
680.276	45009.15
680.461	45566.2
680.647	45263.1
680.832	46039.28
681.017	45615.35
681.202	45957.36
681.387	45299.97
681.572	45709.56
681.756	44994.82
681.941	45553.91
682.126	45334.78
682.311	44923.14
682.496	44294.41
682.681	45046.02
682.866	44968.2
683.051	44734.73
683.235	44087.57
683.42	45226.24
683.605	44564.75
683.79	44656.9
683.974	44615.94
684.159	45508.86
684.344	45019.39
684.529	45254.91
684.713	44718.34
684.898	44826.89
685.083	44683.53
685.267	43964.69
685.452	44138.77
685.636	44261.65
685.821	43510.04
686.005	43776.28
686.19	43313.44
686.375	43872.53
686.559	43538.71
686.744	44087.57
686.928	43546.9
687.112	44282.13
687.297	43862.29
687.481	44820.74
687.666	44296.46
687.85	44869.89
688.034	44763.4
688.219	45517.05
688.403	44943.62
688.587	44937.48
688.772	44701.96
688.956	44648.71
689.14	44523.79
689.324	44962.05
689.509	44216.59
689.693	44966.15
689.877	44402.96
690.061	44321.04
690.245	44214.54
690.43	44224.78
690.614	44251.41
690.798	44572.94
690.982	44493.07
691.166	44914.95
691.35	43727.13
691.534	44693.77
691.718	43819.28
691.902	44472.59
692.086	43493.66
692.27	43608.34
692.454	42811.68
692.638	43778.33
692.822	43528.47
693.006	43727.13
693.19	43229.47
693.373	43927.83
693.557	43421.98
693.741	43860.24
693.925	43139.36
694.109	43354.4
694.293	43249.95
694.476	43284.76
694.66	42459.43
694.844	43024.67
695.027	42912.03
695.211	43473.18
695.395	42973.47
695.578	43809.04
695.762	42441
695.946	42703.14
696.129	42115.37
696.313	42615.08
696.497	42340.65
696.68	42621.22
696.864	41951.54
697.047	42115.37
697.231	41646.39
697.414	41865.52
697.598	41572.66
697.781	42406.19
697.965	41521.46
698.148	41943.35
698.331	41142.59
698.515	42199.34
698.698	41765.17
698.881	42297.64
699.065	41306.43
699.248	42115.37
699.431	41722.16
699.615	42264.88
699.798	41546.04
699.981	41587
700.165	41650.49
700.348	41945.39
700.531	40694.08
700.714	41353.53
700.897	40233.29
701.08	41619.77
701.264	40798.53
701.447	41269.56
701.63	40638.79
701.813	41388.35
701.996	40280.39
702.179	41224.51
702.362	41249.08
702.545	41230.65
702.728	41597.24
702.911	41756.98
703.094	41361.72
703.277	41871.67
703.46	40192.33
703.643	40798.53
703.826	39922
704.009	41210.17
704.191	40161.61
704.374	39979.34
704.557	39579.99
704.74	40327.5
704.923	40053.07
705.106	40313.16
705.288	39635.28
705.471	39784.79
705.654	39706.96
705.837	40112.46
706.019	40044.88
706.202	39831.89
706.385	39762.26
706.567	40048.97
706.75	39809.36
706.932	39692.63
707.115	38881.63
707.298	39307.61
707.48	38357.35
707.663	38099.31
707.845	37914.99
708.028	38170.99
708.21	37732.72
708.393	38418.79
708.575	37439.86
708.758	37917.04
708.94	37871.98
709.123	37831.02
709.305	37622.13
709.487	38162.79
709.67	37499.25
709.852	38398.31
710.034	38056.3
710.217	39301.47
710.399	38142.32
710.581	38361.45
710.764	37765.49
710.946	37947.76
711.128	37185.91
711.31	37935.47
711.492	37022.08
711.675	37509.49
711.857	37316.98
712.039	37400.95
712.221	37144.95
712.403	37419.38
712.585	36696.45
712.767	37398.9
712.949	36854.14
713.131	36530.56
713.314	36229.51
713.496	36782.46
713.678	36338.05
713.86	36669.83
714.041	36940.16
714.223	37486.97
714.405	36751.74
714.587	37060.99
714.769	36262.28
714.951	37321.08
715.133	36159.88
715.315	36467.08
715.497	35887.5
715.678	36229.51
715.86	35910.03
716.042	36256.14
716.224	35346.84
716.406	36460.93
716.587	36127.11
716.769	36094.35
716.951	35535.25
717.132	35594.64
717.314	34986.4
717.496	35608.98
717.677	35223.96
717.859	36145.55
718.041	35488.15
718.222	35690.9
718.404	34980.25
718.585	35893.65
718.767	34849.18
718.948	34929.05
719.13	34560.42
719.311	34720.16
719.493	34255.27
719.674	34337.19
719.856	34013.61
720.037	34308.52
720.219	33890.73
720.4	34064.81
720.581	33782.19
720.763	34433.44
720.944	33739.18
721.125	34144.68
721.307	33454.51
721.488	34316.71
721.669	33704.37
721.85	34226.6
722.032	33966.51
722.213	33599.92
722.394	33200.57
722.575	33450.42
722.756	33323.44
722.938	33649.07
723.119	32762.3
723.3	32496.07
723.481	31949.26
723.662	32518.59
723.843	31867.34
724.024	32475.59
724.205	31885.77
724.386	32518.59
724.567	31922.63
724.748	32922.04
724.929	32389.57
725.11	33110.46
725.291	32319.94
725.472	32883.13
725.653	32541.12
725.834	32698.81
726.015	32137.67
726.196	32444.87
726.377	31529.42
726.557	31529.42
726.738	30882.27
726.919	31181.27
727.1	30757.34
727.281	30892.51
727.461	30697.95
727.642	30200.29
727.823	30056.93
728.004	30302.69
728.184	30147.05
728.365	30570.97
728.546	30331.36
728.726	30222.82
728.907	29776.36
729.087	30452.19
729.268	30200.29
729.449	30226.92
729.629	30026.22
729.81	30566.88
729.99	29878.76
730.171	30058.98
730.351	29637.1
730.532	30061.03
730.712	29700.59
730.893	29680.11
731.073	29010.42
731.253	29276.66
731.434	28504.57
731.614	28809.72
731.795	28486.14
731.975	29194.74
732.155	28463.61
732.336	28832.25
732.516	28967.42
732.696	28692.99
732.876	28756.47
733.057	28557.82
733.237	28328.45
733.417	29043.19
733.597	28105.22
733.778	28645.88
733.958	28162.56
734.138	28279.3
734.318	28219.91
734.498	28068.36
734.678	27187.73
734.858	27529.74
735.038	27040.28
735.218	27406.86
735.398	26671.64
735.579	27214.35
735.759	26595.87
735.939	26950.17
736.119	26452.51
736.298	27120.15
736.478	26266.14
736.658	26499.61
736.838	26378.78
737.018	26462.75
737.198	26108.45
737.378	26339.87
737.558	25840.17
737.738	26014.24
737.917	26110.5
738.097	26059.3
738.277	25655.85
738.457	25539.12
738.637	25125.43
738.816	25348.65
738.996	25201.2
739.176	25479.72
739.355	24957.49
739.535	25227.82
739.715	24953.4
739.894	25170.48
740.074	24959.54
740.254	25193.01
740.433	24834.61
740.613	25174.58
740.792	24709.69
740.972	24996.4
741.151	24572.47
741.331	24857.14
741.51	24672.82
741.69	24834.61
741.869	24400.44
742.049	24379.97
742.228	23755.33
742.408	24029.76
742.587	23763.53
742.766	23642.7
742.946	23501.39
743.125	23638.6
743.305	23413.32
743.484	23491.15
743.663	23237.2
743.842	23114.32
744.022	22858.32
744.201	23300.69
744.38	22694.49
744.56	22499.93
744.739	22970.96
744.918	22874.71
745.097	22594.14
745.276	22639.19
745.455	22213.21
745.635	22094.43
745.814	22387.29
745.993	22461.02
746.172	22082.14
746.351	22772.31
746.53	22170.21
746.709	22383.2
746.888	22299.23
747.067	22585.94
747.246	22002.27
747.425	22121.06
747.604	21717.61
747.783	22141.54
747.962	21561.96
748.141	21863.01
748.32	21842.53
748.499	22176.35
748.677	22401.63
748.856	22340.19
749.035	22164.06
749.214	22508.12
749.393	22522.46
749.572	22981.2
749.75	22385.24
749.929	22291.04
750.108	22258.27
750.287	22446.68
750.465	22090.34
750.644	22280.8
750.823	22477.4
751.001	22674.01
751.18	22592.09
751.359	22594.14
751.537	22162.02
751.716	22325.85
751.894	22266.46
752.073	21967.46
752.251	21881.44
752.43	21725.8
752.609	21660.26
752.787	21946.98
752.966	21791.33
753.144	22123.1
753.322	21729.89
753.501	21754.47
753.679	21772.9
753.858	22129.25
754.036	21455.47
754.215	22049.38
754.393	21772.9
754.571	22053.47
754.75	21533.29
754.928	22032.99
755.106	21504.62
755.284	21885.54
755.463	21215.85
755.641	22334.04
755.819	21512.81
755.997	21627.5
756.176	21164.65
756.354	21496.43
756.532	20990.58
756.71	21498.47
756.888	21144.17
757.066	21340.78
757.245	21348.97
757.423	21465.71
757.601	20877.94
757.779	21244.53
757.957	21074.54
758.135	20961.91
758.313	21125.74
758.491	21365.36
758.669	21045.87
758.847	20800.12
759.025	20347.51
759.203	20531.83
759.381	20171.39
759.559	20507.26
759.737	20206.2
759.915	20378.23
760.092	20306.56
760.27	20494.97
760.448	20181.63
760.626	20236.92
760.804	19608.2
760.981	19972.74
761.159	19563.14
761.337	19737.22
761.515	19421.83
761.692	19618.44
761.87	19669.64
762.048	19479.18
762.226	19425.93
762.403	19583.62
762.581	19167.88
762.759	19266.19
762.936	19159.69
763.114	19061.39
763.291	18326.17
763.469	18678.42
763.647	18330.27
763.824	18207.39
764.002	17593
764.179	18379.42
764.357	17830.56
764.534	18061.98
764.712	17572.52
764.889	17597.09
765.066	17234.6
765.244	17089.2
765.421	16771.76
765.599	16761.52
765.776	16816.82
765.953	16708.27
766.131	16585.4
766.308	16483
766.485	16243.39
766.663	16384.7
766.84	16108.22
767.017	16517.81
767.194	16243.39
767.372	16102.08
767.549	15839.94
767.726	15872.7
767.903	15114.95
768.081	15307.46
768.258	15166.15
768.435	15014.6
768.612	14695.12
768.789	14746.32
768.966	14537.43
769.143	14838.48
769.32	14473.94
769.497	14082.78
769.674	14322.39
769.851	14215.9
770.028	13882.08
770.205	13828.83
770.382	13859.55
770.559	13718.24
770.736	13488.87
770.913	13439.72
771.09	13294.31
771.267	13228.78
771.444	13419.24
771.621	13271.78
771.798	12663.54
771.975	12665.58
772.151	12278.52
772.328	12409.59
772.505	12055.29
772.682	12040.95
772.859	11770.62
773.035	11965.18
773.212	11674.37
773.389	11860.73
773.565	11367.17
773.742	11227.91
773.919	11232.01
774.096	11115.27
774.272	10980.11
774.449	11033.35
774.625	10859.28
774.802	10515.22
774.979	10445.59
775.155	10492.69
775.332	10328.85
775.508	10509.07
775.685	10255.12
775.861	10158.87
776.038	10066.71
776.214	10064.66
776.391	10093.34
776.567	9974.55
776.744	9843.48
776.92	9818.91
777.096	9681.69
777.273	9573.15
777.449	9468.7
777.626	9290.53
777.802	9061.16
777.978	9214.76
778.155	8737.58
778.331	8600.37
778.507	8708.91
778.683	8655.66
778.86	8565.55
779.036	8592.17
779.212	8454.96
779.388	8299.31
779.565	8319.79
779.741	8141.62
779.917	7936.82
780.093	8043.32
780.269	7953.21
780.445	7832.38
780.621	7908.15
780.797	7803.71
780.974	7443.26
781.15	7899.96
781.326	7424.83
781.502	7609.15
781.678	7328.58
781.854	7177.03
782.03	7181.12
782.206	7107.4
782.382	7119.68
782.558	7207.75
782.733	6878.02
782.909	6970.18
783.085	6996.81
783.261	6853.45
783.437	6820.68
783.613	6746.95
783.789	6792.01
783.965	6910.79
784.14	6511.44
784.316	6558.54
784.492	6509.39
784.668	6562.64
784.843	6497.1
785.019	6478.67
785.195	6314.83
785.371	6304.59
785.546	6134.61
785.722	6056.79
785.898	6107.99
786.073	6187.86
786.249	5966.68
786.424	5927.77
786.6	5759.83
786.776	5708.63
786.951	5661.53
787.127	5585.76
787.302	5507.93
787.478	5413.73
787.653	5464.93
787.829	5282.66
788.004	5256.03
788.18	5141.35
788.355	5157.73
788.531	5124.96
788.706	5069.67
788.881	5092.2
789.057	4924.26
789.232	4903.78
789.408	4815.72
789.583	4762.47
789.758	4780.9
789.934	4891.49
790.109	4789.1
790.284	4666.22
790.459	4658.03
790.635	4621.16
790.81	4567.92
790.985	4311.92
791.16	4363.12
791.336	4268.91
791.511	4432.75
791.686	4199.28
791.861	4209.52
792.036	4172.66
792.211	4176.75
792.387	4100.98
792.562	4262.77
792.737	4184.95
792.912	3941.24
793.087	3961.72
793.262	3871.61
793.437	3842.93
793.612	3863.41
793.787	3916.66
793.962	3861.37
794.137	3808.12
794.312	3732.34
794.487	3740.54
794.662	3511.16
794.837	3488.64
795.011	3548.03
795.186	3636.09
795.361	3640.19
795.536	3574.65
795.711	3480.44
795.886	3472.25
796.06	3584.89
796.235	3507.07
796.41	3502.97
796.585	3314.56
796.76	3502.97
796.934	3507.07
797.109	3332.99
797.284	3380.09
797.458	3396.48
797.633	3322.75
797.808	3105.67
797.982	3249.02
798.157	3093.38
798.332	3251.07
798.506	3126.15
798.681	3060.61
798.855	3007.36
799.03	3040.13
799.204	3005.32
799.379	3076.99
799.553	2997.12
799.728	3015.56
799.902	2909.06
800.077	2784.13
800.251	2945.92
800.426	2986.88
800.6	2835.33
800.775	2849.67
800.949	2786.18
801.123	2845.57
801.298	2642.82
801.472	2737.03
801.647	2818.95
801.821	2782.09
801.995	2818.95
802.169	2741.13
802.344	2786.18
802.518	2755.46
802.692	2765.7
802.867	2728.84
803.041	2601.87
803.215	2683.78
803.389	2638.73
803.563	2659.21
803.737	2659.21
803.912	2571.15
804.086	2511.75
804.26	2644.87
804.434	2478.99
804.608	2468.75
804.782	2513.8
804.956	2515.85
805.13	2499.47
805.304	2521.99
805.478	2560.91
805.652	2513.8
805.826	2478.99
806	2433.93
806.174	2458.51
806.348	2438.03
806.522	2472.84
806.696	2372.49
806.87	2380.68
807.044	2370.45
807.218	2421.64
807.392	2323.34
807.566	2306.96
807.739	2335.63
807.913	2317.2
808.087	2339.73
808.261	2282.38
808.435	2483.08
808.608	2233.23
808.782	2392.97
808.956	2360.21
809.13	2302.86
809.303	2315.15
809.477	2360.21
809.651	2298.77
809.824	2399.12
809.998	2360.21
810.172	2378.64
810.345	2290.57
810.519	2311.05
810.692	2323.34
810.866	2362.25
811.04	2339.73
811.213	2347.92
811.387	2220.94
811.56	2339.73
811.734	2163.6
811.907	2325.39
812.081	2274.19
812.254	2282.38
812.428	2356.11
812.601	2335.63
812.774	2227.09
812.948	2364.3
813.121	2241.42
813.295	2321.29
813.468	2229.14
813.641	2266
813.815	2323.34
813.988	2319.25
814.161	2302.86
814.335	2388.88
814.508	2380.68
814.681	2266
814.854	2315.15
815.028	2233.23
815.201	2192.27
815.374	2300.81
815.547	2132.88
815.72	2274.19
815.894	2210.7
816.067	2114.45
816.24	2134.93
816.413	2167.7
816.586	2147.22
816.759	2155.41
816.932	2124.69
817.105	2118.54
817.278	2079.63
817.452	2200.46
817.625	2270.09
817.798	2184.08
817.971	2190.22
818.144	2177.94
818.317	2194.32
818.49	2311.05
818.662	2208.66
818.835	2233.23
819.008	2272.14
819.181	2175.89
819.354	2175.89
819.527	2167.7
819.7	2333.58
819.873	2210.7
820.046	2237.33
820.218	2227.09
820.391	2233.23
820.564	2284.43
820.737	2163.6
820.909	2329.49
821.082	2163.6
821.255	2294.67
821.428	2177.94
821.6	2266
821.773	2261.9
821.946	2276.24
822.118	2143.12
822.291	2071.44
822.464	2096.02
822.636	2268.05
822.809	2044.82
822.982	2155.41
823.154	2175.89
823.327	2179.98
823.499	2034.58
823.672	2048.91
823.844	2055.06
824.017	2143.12
824.189	2106.26
824.362	2118.54
824.534	2132.88
824.707	2034.58
824.879	2159.5
825.052	2184.08
825.224	2184.08
825.396	2159.5
825.569	2249.61
825.741	2173.84
825.914	2171.79
826.086	2120.59
826.258	2151.31
826.431	2122.64
826.603	2098.07
826.775	2104.21
826.947	2216.85
827.12	2018.19
827.292	2063.25
827.464	2136.98
827.636	2018.19
827.809	2130.83
827.981	2126.74
828.153	2087.83
828.325	2073.49
828.497	2073.49
828.669	1932.18
828.842	2073.49
829.014	1952.66
829.186	2085.78
829.358	2118.54
829.53	2110.35
829.702	2141.07
829.874	1913.75
830.046	2032.53
830.218	1973.14
830.39	2122.64
830.562	2014.1
830.734	2016.15
830.906	2122.64
831.078	1930.13
831.25	1995.67
831.422	1905.56
831.594	1983.38
831.766	2126.74
831.937	2079.63
832.109	1954.71
832.281	1987.47
832.453	1897.36
832.625	1905.56
832.797	1864.6
832.968	1880.98
833.14	1883.03
833.312	1932.18
833.484	1823.64
833.655	1854.36
833.827	1848.21
833.999	1899.41
834.171	1835.93
834.342	2038.67
834.514	1815.45
834.686	1938.32
834.857	1883.03
835.029	1923.99
835.2	1938.32
835.372	1942.42
835.544	1819.54
835.715	1708.95
835.887	1819.54
836.058	1864.6
836.23	1850.26
836.401	1831.83
836.573	1807.25
836.744	1807.25
836.916	1889.17
837.087	1864.6
837.259	1936.28
837.43	1786.77
837.602	1803.16
837.773	1823.64
837.945	1696.66
838.116	1848.21
838.287	1803.16
838.459	1772.44
838.63	1784.73
838.801	1762.2
838.973	1813.4
839.144	1792.92
839.315	1733.53
839.487	1860.5
839.658	1815.45
839.829	1897.36
840	1897.36
840.172	1801.11
840.343	1842.07
840.514	1725.33
840.685	1692.57
840.856	1725.33
841.027	1735.57
841.199	1721.24
841.37	1797.01
841.541	1627.03
841.712	1651.61
841.883	1762.2
842.054	1688.47
842.225	1678.23
842.396	1622.94
842.567	1620.89
842.738	1731.48
842.909	1676.18
843.08	1659.8
843.251	1639.32
843.422	1643.42
843.593	1606.55
843.764	1688.47
843.935	1606.55
844.106	1555.35
844.277	1549.21
844.448	1575.83
844.619	1536.92
844.79	1473.43
844.96	1538.97
845.131	1557.4
845.302	1594.26
845.473	1581.98
845.644	1543.07
845.814	1577.88
845.985	1563.55
846.156	1504.15
846.327	1463.19
846.497	1479.58
846.668	1438.62
846.839	1440.67
847.01	1407.9
847.18	1383.32
847.351	1457.05
847.522	1457.05
847.692	1432.48
847.863	1364.89
848.033	1407.9
848.204	1299.36
848.375	1432.48
848.545	1268.64
848.716	1397.66
848.886	1348.51
849.057	1397.66
849.227	1328.03
849.398	1414.04
849.568	1242.01
849.739	1364.89
849.909	1319.84
850.08	1227.68
850.25	1332.12
850.421	1252.25
850.591	1328.03
850.761	1205.15
850.932	1295.26
851.102	1299.36
851.272	1282.97
851.443	1260.45
851.613	1274.78
851.783	1194.91
851.954	1274.78
852.124	1180.58
852.294	1268.64
852.465	1235.87
852.635	1078.18
852.805	1151.9
852.975	1151.9
853.145	1219.49
853.316	1069.98
853.486	1166.24
853.656	1151.9
853.826	1143.71
853.996	1119.14
854.166	1170.34
854.337	1180.58
854.507	1156
854.677	1180.58
854.847	1162.14
855.017	1127.33
855.187	1123.23
855.357	1098.66
855.527	1209.25
855.697	1135.52
855.867	1123.23
856.037	1049.51
856.207	1024.93
856.377	1055.65
856.547	1074.08
856.717	1096.61
856.887	1039.27
857.057	1098.66
857.227	967.59
857.397	1033.12
857.566	963.49
857.736	1039.27
857.906	1053.6
858.076	1004.45
858.246	1035.17
858.416	959.39
858.585	1043.36
858.755	1000.35
858.925	1014.69
859.095	943.01
859.264	979.87
859.434	955.3
859.604	957.35
859.774	873.38
859.943	955.3
860.113	910.24
860.283	979.87
860.452	947.11
860.622	873.38
860.791	916.39
860.961	900
861.131	906.15
861.3	807.84
861.47	857
861.639	924.58
861.809	893.86
861.978	883.62
862.148	893.86
862.318	879.52
862.487	889.76
862.657	873.38
862.826	873.38
862.995	857
863.165	857
863.334	828.32
863.504	867.24
863.673	861.09
863.843	857
864.012	883.62
864.181	873.38
864.351	854.95
864.52	906.15
864.689	826.28
864.859	832.42
865.028	824.23
865.197	807.84
865.366	779.17
865.536	857
865.705	807.84
865.874	738.21
866.043	811.94
866.213	820.13
866.382	744.36
866.551	789.41
866.72	770.98
866.889	766.89
867.059	760.74
867.228	822.18
867.397	803.75
867.566	730.02
867.735	801.7
867.904	785.32
868.073	809.89
868.242	668.58
868.411	799.65
868.58	746.41
868.749	725.93
868.918	725.93
869.087	768.93
869.256	766.89
869.425	701.35
869.594	727.97
869.763	695.21
869.932	693.16
870.101	717.73
870.27	693.16
870.439	764.84
870.608	742.31
870.777	746.41
870.945	652.2
871.114	654.25
871.283	596.9
871.452	662.44
871.621	586.66
871.789	623.53
871.958	627.62
872.127	603.05
872.296	656.3
872.464	613.29
872.633	660.39
872.802	693.16
872.971	650.15
873.139	689.06
873.308	590.76
873.477	717.73
873.645	578.47
873.814	646.06
873.983	570.28
874.151	641.96
874.32	629.67
874.488	607.14
874.657	627.62
874.826	652.2
874.994	592.81
875.163	580.52
875.331	598.95
875.5	615.34
875.668	605.1
875.837	611.24
876.005	615.34
876.174	652.2
876.342	613.29
876.51	615.34
876.679	631.72
876.847	641.96
877.016	629.67
877.184	580.52
877.352	676.77
877.521	670.63
877.689	635.82
877.857	521.13
878.026	598.95
878.194	619.43
878.362	627.62
878.531	541.61
878.699	580.52
878.867	656.3
879.036	564.14
879.204	578.47
879.372	619.43
879.54	648.1
879.708	601
879.877	500.65
880.045	549.8
880.213	578.47
880.381	504.75
880.549	562.09
880.717	586.66
880.885	564.14
881.054	553.9
881.222	517.03
881.39	541.61
881.558	584.62
881.726	553.9
881.894	570.28
882.062	543.66
882.23	549.8
882.398	529.32
882.566	512.94
882.734	537.51
882.902	488.36
883.07	525.23
883.238	533.42
883.406	562.09
883.574	490.41
883.741	529.32
883.909	474.03
884.077	508.84
884.245	521.13
884.413	545.7
884.581	459.69
884.749	582.57
884.916	553.9
885.084	549.8
885.252	601
885.42	603.05
885.587	541.61
885.755	603.05
885.923	506.79
886.091	533.42
886.258	445.35
886.426	529.32
886.594	555.94
886.761	564.14
886.929	441.26
887.097	562.09
887.264	508.84
887.432	564.14
887.6	390.06
887.767	488.36
887.935	521.13
888.102	467.88
888.27	512.94
888.438	521.13
888.605	551.85
888.773	533.42
888.94	517.03
889.108	467.88
889.275	566.18
889.443	498.6
889.61	502.7
889.778	512.94
889.945	422.83
890.112	517.03
890.28	486.31
890.447	500.65
890.615	547.75
890.782	533.42
890.949	474.03
891.117	531.37
891.284	455.59
891.452	519.08
891.619	517.03
891.786	502.7
891.953	492.46
892.121	492.46
892.288	467.88
892.455	451.5
892.623	484.27
892.79	455.59
892.957	467.88
893.124	492.46
893.291	471.98
893.459	590.76
893.626	465.83
893.793	490.41
893.96	586.66
894.127	480.17
894.294	455.59
894.461	480.17
894.629	496.55
894.796	549.8
894.963	533.42
895.13	517.03
895.297	512.94
895.464	431.02
895.631	531.37
895.798	570.28
895.965	553.9
896.132	562.09
896.299	517.03
896.466	416.68
896.633	529.32
896.8	455.59
896.967	424.87
897.134	459.69
897.301	471.98
897.467	465.83
897.634	519.08
897.801	435.11
897.968	435.11
898.135	512.94
898.302	402.35
898.469	490.41
898.635	437.16
898.802	480.17
898.969	377.77
899.136	414.63
899.303	478.12
