Data from light_USB4E013581_00003.txt Node
Date: Wed May 08 15:04:40 EDT 2019
User: dh1006
Spectrometer: USB4E01358
Autoset integration time: false
Trigger mode: 4
Integration Time (sec): 2.925000E-2
Scans to average: 1
Electric dark correction enabled: true
Nonlinearity correction enabled: false
Boxcar width: 0
Stray light correction enabled: false
XAxis mode: Wavelengths
Stop averaging: false
Number of Pixels in Spectrum: 3648
>>>>>Begin Spectral Data<<<<<
176.727	-24.89
176.966	-24.89
177.205	-24.89
177.444	-10.55
177.683	-59.71
177.922	91.84
178.161	30.4
178.4	-10.55
178.638	42.69
178.877	7.88
179.116	-39.23
179.355	24.26
179.593	-2.36
179.832	22.21
180.071	52.93
180.309	-102.71
180.548	16.07
180.786	-4.41
181.025	106.18
181.263	65.22
181.502	145.09
181.74	34.5
181.979	-18.75
182.217	-10.55
182.456	188.1
182.694	120.52
182.932	91.84
183.17	79.56
183.409	30.4
183.647	1.73
183.885	63.17
184.123	91.84
184.361	104.13
184.6	22.21
184.838	50.88
185.076	24.26
185.314	128.71
185.552	71.36
185.79	97.99
186.028	30.4
186.266	54.98
186.503	87.75
186.741	87.75
186.979	81.6
187.217	71.36
187.455	116.42
187.693	38.6
187.93	75.46
188.168	87.75
188.406	32.45
188.643	32.45
188.881	108.23
189.119	63.17
189.356	59.08
189.594	-16.7
189.831	48.84
190.069	118.47
190.306	87.75
190.543	48.84
190.781	57.03
191.018	95.94
191.256	73.41
191.493	36.55
191.73	100.04
191.967	71.36
192.205	81.6
192.442	85.7
192.679	75.46
192.916	63.17
193.153	153.28
193.39	52.93
193.628	120.52
193.865	128.71
194.102	38.6
194.339	87.75
194.576	106.18
194.813	120.52
195.049	22.21
195.286	38.6
195.523	87.75
195.76	108.23
195.997	69.32
196.234	110.28
196.47	128.71
196.707	46.79
196.944	40.64
197.18	134.85
197.417	83.65
197.654	102.08
197.89	54.98
198.127	120.52
198.363	61.12
198.6	128.71
198.836	63.17
199.073	87.75
199.309	112.32
199.546	79.56
199.782	87.75
200.018	124.61
200.255	-4.41
200.491	163.52
200.727	22.21
200.963	54.98
201.199	48.84
201.436	59.08
201.672	-35.13
201.908	138.95
202.144	79.56
202.38	89.8
202.616	104.13
202.852	85.7
203.088	87.75
203.324	75.46
203.56	63.17
203.796	116.42
204.032	124.61
204.268	151.23
204.503	91.84
204.739	112.32
204.975	112.32
205.211	46.79
205.446	36.55
205.682	57.03
205.918	122.56
206.153	153.28
206.389	112.32
206.625	87.75
206.86	-6.46
207.096	67.27
207.331	87.75
207.567	42.69
207.802	89.8
208.037	30.4
208.273	114.37
208.508	67.27
208.744	61.12
208.979	32.45
209.214	63.17
209.449	130.75
209.685	18.12
209.92	48.84
210.155	112.32
210.39	32.45
210.625	-10.55
210.86	91.84
211.095	120.52
211.33	161.47
211.565	30.4
211.8	26.31
212.035	104.13
212.27	75.46
212.505	77.51
212.74	130.75
212.975	83.65
213.21	100.04
213.444	61.12
213.679	112.32
213.914	5.83
214.149	120.52
214.383	128.71
214.618	69.32
214.853	120.52
215.087	87.75
215.322	85.7
215.556	87.75
215.791	89.8
216.025	22.21
216.26	106.18
216.494	106.18
216.729	38.6
216.963	69.32
217.197	153.28
217.432	20.16
217.666	14.02
217.9	77.51
218.135	134.85
218.369	97.99
218.603	54.98
218.837	57.03
219.071	79.56
219.306	97.99
219.54	81.6
219.774	104.13
220.008	95.94
220.242	1.73
220.476	116.42
220.71	124.61
220.944	59.08
221.178	120.52
221.411	120.52
221.645	114.37
221.879	59.08
222.113	87.75
222.347	79.56
222.58	71.36
222.814	54.98
223.048	122.56
223.281	57.03
223.515	112.32
223.749	114.37
223.982	122.56
224.216	67.27
224.449	104.13
224.683	5.83
224.916	100.04
225.15	59.08
225.383	71.36
225.617	30.4
225.85	89.8
226.083	54.98
226.317	48.84
226.55	93.89
226.783	73.41
227.016	89.8
227.25	104.13
227.483	71.36
227.716	120.52
227.949	83.65
228.182	169.67
228.415	87.75
228.648	9.92
228.881	106.18
229.114	186.05
229.347	71.36
229.58	69.32
229.813	18.12
230.046	118.47
230.279	89.8
230.512	-0.32
230.745	216.77
230.977	140.99
231.21	124.61
231.443	108.23
231.675	-10.55
231.908	14.02
232.141	102.08
232.373	67.27
232.606	83.65
232.839	71.36
233.071	89.8
233.304	100.04
233.536	106.18
233.769	91.84
234.001	108.23
234.233	32.45
234.466	54.98
234.698	79.56
234.93	46.79
235.163	179.91
235.395	14.02
235.627	95.94
235.86	67.27
236.092	134.85
236.324	40.64
236.556	132.8
236.788	120.52
237.02	24.26
237.252	83.65
237.484	171.71
237.716	-2.36
237.948	91.84
238.18	108.23
238.412	122.56
238.644	81.6
238.876	54.98
239.108	38.6
239.34	143.04
239.571	59.08
239.803	91.84
240.035	34.5
240.267	190.15
240.498	106.18
240.73	128.71
240.962	57.03
241.193	95.94
241.425	81.6
241.656	126.66
241.888	116.42
242.119	34.5
242.351	30.4
242.582	67.27
242.814	-12.6
243.045	5.83
243.277	-2.36
243.508	73.41
243.739	26.31
243.971	93.89
244.202	89.8
244.433	85.7
244.664	75.46
244.896	54.98
245.127	110.28
245.358	104.13
245.589	71.36
245.82	87.75
246.051	87.75
246.282	95.94
246.513	50.88
246.744	73.41
246.975	65.22
247.206	153.28
247.437	30.4
247.668	79.56
247.899	104.13
248.129	130.75
248.36	91.84
248.591	79.56
248.822	54.98
249.052	63.17
249.283	102.08
249.514	102.08
249.744	104.13
249.975	73.41
250.206	63.17
250.436	110.28
250.667	95.94
250.897	95.94
251.128	42.69
251.358	87.75
251.589	79.56
251.819	104.13
252.049	122.56
252.28	89.8
252.51	112.32
252.74	46.79
252.971	87.75
253.201	79.56
253.431	73.41
253.661	81.6
253.891	95.94
254.121	120.52
254.352	79.56
254.582	128.71
254.812	67.27
255.042	89.8
255.272	112.32
255.502	63.17
255.732	75.46
255.962	91.84
256.192	138.95
256.421	85.7
256.651	69.32
256.881	100.04
257.111	120.52
257.341	104.13
257.57	79.56
257.8	81.6
258.03	18.12
258.259	110.28
258.489	136.9
258.719	95.94
258.948	40.64
259.178	124.61
259.407	120.52
259.637	143.04
259.866	71.36
260.096	34.5
260.325	54.98
260.555	104.13
260.784	63.17
261.013	95.94
261.243	-0.32
261.472	54.98
261.701	65.22
261.931	50.88
262.16	102.08
262.389	38.6
262.618	104.13
262.847	102.08
263.076	75.46
263.305	71.36
263.535	120.52
263.764	7.88
263.993	79.56
264.222	36.55
264.451	120.52
264.679	57.03
264.908	75.46
265.137	63.17
265.366	120.52
265.595	128.71
265.824	71.36
266.053	67.27
266.281	59.08
266.51	59.08
266.739	145.09
266.967	151.23
267.196	97.99
267.425	73.41
267.653	95.94
267.882	147.14
268.11	54.98
268.339	67.27
268.567	46.79
268.796	118.47
269.024	97.99
269.253	112.32
269.481	108.23
269.709	65.22
269.938	112.32
270.166	106.18
270.394	100.04
270.623	104.13
270.851	79.56
271.079	147.14
271.307	130.75
271.535	-2.36
271.764	171.71
271.992	161.47
272.22	114.37
272.448	75.46
272.676	145.09
272.904	136.9
273.132	59.08
273.36	130.75
273.588	100.04
273.816	87.75
274.043	52.93
274.271	95.94
274.499	95.94
274.727	112.32
274.955	54.98
275.182	128.71
275.41	54.98
275.638	77.51
275.866	46.79
276.093	173.76
276.321	145.09
276.548	140.99
276.776	108.23
277.003	124.61
277.231	145.09
277.458	63.17
277.686	89.8
277.913	112.32
278.141	175.81
278.368	97.99
278.595	95.94
278.823	87.75
279.05	159.43
279.277	28.36
279.505	57.03
279.732	87.75
279.959	71.36
280.186	112.32
280.413	102.08
280.641	120.52
280.868	52.93
281.095	79.56
281.322	77.51
281.549	91.84
281.776	112.32
282.003	122.56
282.23	54.98
282.457	67.27
282.683	161.47
282.91	130.75
283.137	110.28
283.364	93.89
283.591	-18.75
283.818	73.41
284.044	42.69
284.271	57.03
284.498	83.65
284.724	69.32
284.951	77.51
285.178	124.61
285.404	83.65
285.631	48.84
285.857	112.32
286.084	40.64
286.31	136.9
286.537	114.37
286.763	57.03
286.99	134.85
287.216	83.65
287.442	26.31
287.669	153.28
287.895	104.13
288.121	26.31
288.347	145.09
288.574	163.52
288.8	149.19
289.026	95.94
289.252	95.94
289.478	181.95
289.704	65.22
289.931	69.32
290.157	91.84
290.383	26.31
290.609	106.18
290.835	122.56
291.06	79.56
291.286	110.28
291.512	59.08
291.738	108.23
291.964	67.27
292.19	75.46
292.416	71.36
292.641	95.94
292.867	149.19
293.093	128.71
293.319	153.28
293.544	136.9
293.77	120.52
293.995	100.04
294.221	91.84
294.447	91.84
294.672	161.47
294.898	40.64
295.123	73.41
295.349	42.69
295.574	73.41
295.799	9.92
296.025	77.51
296.25	83.65
296.476	59.08
296.701	194.24
296.926	87.75
297.151	130.75
297.377	69.32
297.602	120.52
297.827	114.37
298.052	85.7
298.277	100.04
298.502	112.32
298.727	116.42
298.953	112.32
299.178	67.27
299.403	120.52
299.628	75.46
299.852	108.23
300.077	93.89
300.302	83.65
300.527	81.6
300.752	50.88
300.977	46.79
301.202	89.8
301.426	102.08
301.651	116.42
301.876	100.04
302.101	18.12
302.325	161.47
302.55	83.65
302.775	120.52
302.999	54.98
303.224	124.61
303.448	63.17
303.673	108.23
303.897	128.71
304.122	87.75
304.346	175.81
304.571	87.75
304.795	1.73
305.019	85.7
305.244	85.7
305.468	104.13
305.692	46.79
305.917	136.9
306.141	7.88
306.365	128.71
306.589	79.56
306.813	128.71
307.038	116.42
307.262	57.03
307.486	3.78
307.71	108.23
307.934	83.65
308.158	95.94
308.382	77.51
308.606	81.6
308.83	100.04
309.054	145.09
309.278	128.71
309.502	102.08
309.725	138.95
309.949	188.1
310.173	104.13
310.397	63.17
310.62	67.27
310.844	173.76
311.068	145.09
311.292	124.61
311.515	73.41
311.739	38.6
311.962	75.46
312.186	149.19
312.41	71.36
312.633	83.65
312.857	97.99
313.08	71.36
313.303	126.66
313.527	75.46
313.75	85.7
313.974	81.6
314.197	38.6
314.42	89.8
314.644	73.41
314.867	106.18
315.09	24.26
315.313	104.13
315.536	71.36
315.76	48.84
315.983	116.42
316.206	140.99
316.429	173.76
316.652	26.31
316.875	14.02
317.098	136.9
317.321	71.36
317.544	108.23
317.767	140.99
317.99	81.6
318.213	81.6
318.436	128.71
318.658	67.27
318.881	79.56
319.104	114.37
319.327	38.6
319.55	124.61
319.772	97.99
319.995	140.99
320.218	100.04
320.44	169.67
320.663	112.32
320.885	147.14
321.108	95.94
321.331	114.37
321.553	89.8
321.776	190.15
321.998	114.37
322.22	128.71
322.443	124.61
322.665	169.67
322.888	81.6
323.11	104.13
323.332	120.52
323.555	175.81
323.777	151.23
323.999	136.9
324.221	104.13
324.443	95.94
324.666	149.19
324.888	118.47
325.11	132.8
325.332	132.8
325.554	20.16
325.776	85.7
325.998	147.14
326.22	59.08
326.442	163.52
326.664	5.83
326.886	108.23
327.108	95.94
327.33	120.52
327.551	149.19
327.773	132.8
327.995	87.75
328.217	153.28
328.439	67.27
328.66	112.32
328.882	89.8
329.104	118.47
329.325	52.93
329.547	108.23
329.769	130.75
329.99	97.99
330.212	42.69
330.433	122.56
330.655	106.18
330.876	102.08
331.098	79.56
331.319	59.08
331.54	102.08
331.762	83.65
331.983	112.32
332.204	97.99
332.426	54.98
332.647	75.46
332.868	34.5
333.089	132.8
333.311	145.09
333.532	59.08
333.753	116.42
333.974	30.4
334.195	63.17
334.416	100.04
334.637	85.7
334.858	130.75
335.079	63.17
335.3	194.24
335.521	14.02
335.742	89.8
335.963	81.6
336.184	95.94
336.405	120.52
336.626	71.36
336.846	157.38
337.067	112.32
337.288	136.9
337.509	71.36
337.729	81.6
337.95	59.08
338.171	95.94
338.391	114.37
338.612	136.9
338.833	114.37
339.053	79.56
339.274	48.84
339.494	149.19
339.715	108.23
339.935	112.32
340.156	138.95
340.376	50.88
340.596	48.84
340.817	54.98
341.037	124.61
341.257	120.52
341.478	100.04
341.698	120.52
341.918	38.6
342.138	77.51
342.359	151.23
342.579	122.56
342.799	87.75
343.019	102.08
343.239	124.61
343.459	97.99
343.679	120.52
343.899	163.52
344.119	130.75
344.339	75.46
344.559	67.27
344.779	75.46
344.999	73.41
345.219	134.85
345.439	112.32
345.658	161.47
345.878	122.56
346.098	79.56
346.318	108.23
346.537	81.6
346.757	134.85
346.977	89.8
347.196	50.88
347.416	173.76
347.636	106.18
347.855	71.36
348.075	100.04
348.294	91.84
348.514	75.46
348.733	175.81
348.953	71.36
349.172	75.46
349.392	83.65
349.611	159.43
349.83	77.51
350.05	89.8
350.269	122.56
350.488	87.75
350.707	81.6
350.927	112.32
351.146	147.14
351.365	67.27
351.584	155.33
351.803	89.8
352.023	50.88
352.242	120.52
352.461	132.8
352.68	95.94
352.899	95.94
353.118	87.75
353.337	186.05
353.556	114.37
353.775	145.09
353.993	134.85
354.212	63.17
354.431	143.04
354.65	145.09
354.869	145.09
355.088	130.75
355.306	91.84
355.525	91.84
355.744	87.75
355.962	149.19
356.181	165.57
356.4	89.8
356.618	106.18
356.837	126.66
357.055	100.04
357.274	132.8
357.492	112.32
357.711	87.75
357.929	145.09
358.148	71.36
358.366	138.95
358.585	108.23
358.803	153.28
359.021	173.76
359.24	38.6
359.458	116.42
359.676	9.92
359.894	97.99
360.113	151.23
360.331	145.09
360.549	140.99
360.767	149.19
360.985	104.13
361.203	114.37
361.421	145.09
361.639	120.52
361.857	114.37
362.075	104.13
362.293	104.13
362.511	46.79
362.729	145.09
362.947	134.85
363.165	153.28
363.383	71.36
363.601	186.05
363.819	38.6
364.036	112.32
364.254	120.52
364.472	104.13
364.689	136.9
364.907	161.47
365.125	95.94
365.342	118.47
365.56	151.23
365.778	194.24
365.995	75.46
366.213	104.13
366.43	81.6
366.648	132.8
366.865	153.28
367.083	95.94
367.3	120.52
367.517	110.28
367.735	102.08
367.952	145.09
368.17	104.13
368.387	145.09
368.604	145.09
368.821	136.9
369.039	151.23
369.256	79.56
369.473	112.32
369.69	153.28
369.907	153.28
370.124	128.71
370.341	112.32
370.558	75.46
370.776	194.24
370.993	57.03
371.21	132.8
371.426	120.52
371.643	124.61
371.86	95.94
372.077	89.8
372.294	95.94
372.511	114.37
372.728	136.9
372.945	95.94
373.161	112.32
373.378	145.09
373.595	114.37
373.811	108.23
374.028	132.8
374.245	91.84
374.461	130.75
374.678	100.04
374.895	128.71
375.111	220.87
375.328	83.65
375.544	194.24
375.761	104.13
375.977	136.9
376.194	138.95
376.41	128.71
376.626	67.27
376.843	175.81
377.059	153.28
377.275	79.56
377.492	130.75
377.708	145.09
377.924	132.8
378.14	136.9
378.357	202.43
378.573	161.47
378.789	177.86
379.005	87.75
379.221	100.04
379.437	161.47
379.653	120.52
379.869	196.29
380.085	83.65
380.301	140.99
380.517	153.28
380.733	54.98
380.949	120.52
381.165	161.47
381.381	108.23
381.597	147.14
381.813	120.52
382.028	188.1
382.244	59.08
382.46	235.2
382.676	200.39
382.891	132.8
383.107	145.09
383.323	120.52
383.538	79.56
383.754	169.67
383.969	169.67
384.185	145.09
384.4	169.67
384.616	202.43
384.831	190.15
385.047	202.43
385.262	173.76
385.478	177.86
385.693	186.05
385.909	153.28
386.124	218.82
386.339	130.75
386.554	202.43
386.77	171.71
386.985	122.56
387.2	198.34
387.415	241.35
387.631	63.17
387.846	237.25
388.061	157.38
388.276	194.24
388.491	210.63
388.706	249.54
388.921	222.91
389.136	231.11
389.351	188.1
389.566	167.62
389.781	235.2
389.996	194.24
390.211	212.67
390.426	169.67
390.641	263.87
390.855	194.24
391.07	173.76
391.285	270.02
391.5	292.54
391.714	296.64
391.929	241.35
392.144	263.87
392.358	267.97
392.573	202.43
392.788	186.05
393.002	237.25
393.217	267.97
393.431	251.59
393.646	288.45
393.86	263.87
394.075	337.6
394.289	227.01
394.504	255.68
394.718	366.27
394.933	310.98
395.147	308.93
395.361	308.93
395.576	378.56
395.79	366.27
396.004	396.99
396.218	392.89
396.432	390.85
396.647	407.23
396.861	378.56
397.075	401.09
397.289	399.04
397.503	382.66
397.717	362.18
397.931	386.75
398.145	403.13
398.359	415.42
398.573	452.29
398.787	470.72
399.001	472.77
399.215	376.51
399.429	513.73
399.643	505.53
399.857	550.59
400.07	530.11
400.284	442.05
400.498	579.26
400.712	571.07
400.925	554.68
401.139	538.3
401.353	593.6
401.566	607.93
401.78	655.03
401.994	583.36
402.207	661.18
402.421	562.88
402.634	695.99
402.848	702.14
403.061	661.18
403.275	589.5
403.488	616.12
403.702	691.9
403.915	726.71
404.128	769.72
404.342	865.98
404.555	857.78
404.768	769.72
404.982	868.02
405.195	919.22
405.408	841.4
405.621	841.4
405.835	878.26
406.048	931.51
406.261	906.94
406.474	943.8
406.687	990.9
406.9	1093.3
407.113	890.55
407.326	1046.2
407.539	939.7
407.752	1111.73
407.965	1062.58
408.178	1103.54
408.391	1169.08
408.604	1148.6
408.817	1177.27
409.029	1189.55
409.242	1187.51
409.455	1185.46
409.668	1263.28
409.881	1261.23
410.093	1279.67
410.306	1382.06
410.519	1328.82
410.731	1382.06
410.944	1398.45
411.157	1427.12
411.369	1558.19
411.582	1455.79
411.794	1515.18
412.007	1502.89
412.219	1498.8
412.432	1521.33
412.644	1371.82
412.857	1537.71
413.069	1595.05
413.281	1513.13
413.494	1615.53
413.706	1760.94
413.918	1595.05
414.131	1824.43
414.343	1808.04
414.555	1865.38
414.767	1783.47
414.979	1791.66
415.192	1900.2
415.404	2021.03
415.616	1881.77
415.828	1881.77
416.04	1957.54
416.252	1875.62
416.464	1724.07
416.676	2000.55
416.888	1949.35
417.1	1980.07
417.312	2029.22
417.524	2168.48
417.736	2023.08
417.948	2105
418.159	2129.57
418.371	2021.03
418.583	2111.14
418.795	2182.82
419.007	2211.49
419.218	2100.9
419.43	2121.38
419.642	2326.18
419.853	2258.59
420.065	2215.59
420.276	2293.41
420.488	2268.83
420.7	2252.45
420.911	2283.17
421.123	2356.9
421.334	2383.52
421.546	2332.32
421.757	2539.17
421.969	2350.75
422.18	2408.1
422.391	2471.58
422.603	2457.25
422.814	2475.68
423.025	2483.87
423.237	2375.33
423.448	2473.63
423.659	2627.23
423.87	2578.08
424.082	2555.55
424.293	2610.85
424.504	2655.9
424.715	2422.43
424.926	2655.9
425.137	2559.65
425.348	2561.69
425.559	2598.56
425.77	2707.1
425.981	2533.02
426.192	2717.34
426.403	2872.99
426.614	2717.34
426.825	2692.76
427.036	2639.52
427.247	2502.3
427.458	2686.62
427.668	2594.46
427.879	2711.2
428.09	2545.31
428.301	2825.88
428.511	2719.39
428.722	2717.34
428.933	2801.31
429.143	2637.47
429.354	2721.44
429.565	2850.46
429.775	2803.35
429.986	2791.07
430.196	2879.13
430.407	2709.15
430.617	2639.52
430.828	2705.05
431.038	2856.6
431.249	2883.22
431.459	2711.2
431.669	2766.49
431.88	2672.28
432.09	2621.08
432.3	2879.13
432.511	2795.16
432.721	2731.68
432.931	2926.23
433.141	2606.75
433.351	2713.24
433.562	2803.35
433.772	2766.49
433.982	2891.42
434.192	2834.07
434.402	2774.68
434.612	2821.79
434.822	2932.38
435.032	2741.92
435.242	2797.21
435.452	2860.7
435.662	2688.67
435.872	2946.71
436.082	2856.6
436.292	2619.04
436.502	2791.07
436.711	2879.13
436.921	2670.24
437.131	2754.2
437.341	2721.44
437.551	2858.65
437.76	2938.52
437.97	2705.05
438.18	2782.87
438.389	2651.8
438.599	2602.65
438.808	2680.48
439.018	2803.35
439.228	2682.52
439.437	2645.66
439.647	2774.68
439.856	2750.11
440.066	2596.51
440.275	2561.69
440.484	2809.5
440.694	2625.18
440.903	2784.92
441.113	2627.23
441.322	2625.18
441.531	2723.48
441.741	2803.35
441.95	2741.92
442.159	2764.44
442.368	2598.56
442.577	2563.74
442.787	2696.86
442.996	2756.25
443.205	2660
443.414	2766.49
443.623	2684.57
443.832	2641.56
444.041	2627.23
444.25	2719.39
444.459	2471.58
444.668	2614.94
444.877	2504.35
445.086	2522.78
445.295	2614.94
445.504	2705.05
445.713	2522.78
445.922	2582.17
446.13	2625.18
446.339	2522.78
446.548	2463.39
446.757	2496.16
446.965	2516.64
447.174	2506.4
447.383	2440.86
447.591	2307.75
447.8	2311.84
448.009	2598.56
448.217	2530.97
448.426	2643.61
448.634	2447.01
448.843	2557.6
449.051	2389.66
449.26	2520.73
449.468	2586.27
449.677	2459.3
449.885	2530.97
450.093	2571.93
450.302	2430.62
450.51	2569.89
450.719	2391.71
450.927	2612.89
451.135	2561.69
451.343	2461.34
451.552	2467.49
451.76	2621.08
451.968	2377.38
452.176	2315.94
452.384	2545.31
452.592	2320.03
452.8	2627.23
453.009	2565.79
453.217	2565.79
453.425	2461.34
453.633	2391.71
453.841	2498.21
454.049	2373.28
454.257	2512.54
454.464	2348.71
454.672	2623.13
454.88	2516.64
455.088	2512.54
455.296	2492.06
455.504	2514.59
455.711	2317.99
455.919	2555.55
456.127	2447.01
456.335	2604.7
456.542	2602.65
456.75	2565.79
456.958	2610.85
457.165	2578.08
457.373	2557.6
457.581	2459.3
457.788	2619.04
457.996	2545.31
458.203	2582.17
458.411	2651.8
458.618	2528.93
458.826	2332.32
459.033	2627.23
459.24	2557.6
459.448	2594.46
459.655	2725.53
459.863	2750.11
460.07	2684.57
460.277	2397.86
460.484	2588.32
460.692	2639.52
460.899	2750.11
461.106	2451.1
461.313	2750.11
461.52	2588.32
461.728	2778.78
461.935	2725.53
462.142	2750.11
462.349	2571.93
462.556	2739.87
462.763	2741.92
462.97	2786.97
463.177	2594.46
463.384	2776.73
463.591	2676.38
463.798	2643.61
464.005	2717.34
464.212	2748.06
464.418	2563.74
464.625	2805.4
464.832	2791.07
465.039	2762.39
465.246	2748.06
465.452	2848.41
465.659	2850.46
465.866	2854.55
466.072	2801.31
466.279	2973.34
466.486	2924.18
466.692	2807.45
466.899	2825.88
467.105	2909.85
467.312	2864.79
467.519	2924.18
467.725	2889.37
467.931	3014.29
468.138	2963.1
468.344	3085.97
468.551	2928.28
468.757	3184.28
468.964	3171.99
469.17	2987.67
469.376	3249.81
469.583	3102.36
469.789	3233.43
469.995	3313.3
470.201	3323.54
470.408	3331.73
470.614	3307.15
470.82	3339.92
471.026	3458.7
471.232	3315.35
471.438	3335.83
471.644	3344.02
471.85	3442.32
472.056	3536.53
472.262	3487.38
472.468	3550.86
472.674	3724.94
472.88	3634.83
473.086	3833.48
473.292	3710.6
473.498	3753.61
473.704	3851.91
473.91	3772.04
474.116	3819.15
474.321	3860.11
474.527	3692.17
474.733	4019.85
474.939	3858.06
475.144	3946.12
475.35	4095.62
475.556	4062.85
475.761	3997.32
475.967	4202.12
476.173	4079.24
476.378	4163.21
476.584	4445.83
476.789	4296.32
476.995	4394.63
477.2	4357.76
477.406	4507.26
477.611	4630.14
477.817	4519.55
478.022	4542.08
478.227	4667.01
478.433	4515.46
478.638	4591.23
478.843	4658.81
479.049	4744.83
479.254	4830.84
479.459	4810.36
479.664	4931.19
479.87	4879.99
480.075	5037.69
480.28	4806.27
480.485	4763.26
480.69	4925.05
480.895	5097.08
481.1	5248.63
481.306	5310.07
481.511	5166.71
481.716	5367.41
481.921	5248.63
482.126	5400.18
482.33	5420.66
482.535	5285.49
482.74	5447.28
482.945	5512.82
483.15	5504.62
483.355	5408.37
483.56	5699.18
483.765	5584.5
483.969	5897.83
484.174	5809.77
484.379	5637.74
484.583	5807.72
484.788	5758.57
484.993	5971.56
485.197	5893.74
485.402	5731.95
485.607	6133.35
485.811	6051.43
486.016	6127.21
486.22	6073.96
486.425	6053.48
486.629	6159.97
486.834	6151.78
487.038	6143.59
487.243	6157.93
487.447	6325.86
487.652	6499.94
487.856	6485.6
488.06	6557.28
488.265	6549.09
488.469	6706.78
488.673	6547.04
488.877	6446.69
489.082	6307.43
489.286	6456.93
489.49	6708.83
489.694	6686.3
489.898	6710.88
490.102	6762.08
490.307	6714.97
490.511	6917.72
490.715	6809.18
490.919	6921.82
491.123	6827.61
491.327	7069.27
491.531	6983.26
491.735	7054.94
491.939	6977.11
492.143	7364.18
492.346	7151.19
492.55	7153.24
492.754	7177.82
492.958	7165.53
493.162	7165.53
493.366	7489.11
493.569	7501.39
493.773	7577.17
493.977	7464.53
494.18	7399
494.384	7298.65
494.588	7581.27
494.791	7566.93
494.995	7607.89
495.199	7532.11
495.402	7609.94
495.606	7706.19
495.809	7710.29
496.013	7859.79
496.216	7820.88
496.42	7925.32
496.623	7898.7
496.827	8050.25
497.03	7925.32
497.233	8001.1
497.437	7999.05
497.64	7988.81
497.843	8242.76
498.047	8189.51
498.25	8054.35
498.453	8267.33
498.656	8474.18
498.86	8199.75
499.063	8298.05
499.266	8382.02
499.469	8427.08
499.672	8296.01
499.875	8566.34
500.078	8654.4
500.281	8799.81
500.484	8439.36
500.687	8525.38
500.89	8607.3
501.093	8795.71
501.296	8670.78
501.499	8787.52
501.702	8844.86
501.905	8894.01
502.108	8873.53
502.311	8855.1
502.514	9188.92
502.716	9352.76
502.919	9158.2
503.122	9264.7
503.325	9172.54
503.527	9252.41
503.73	9109.05
503.933	9266.74
504.135	9295.42
504.338	9344.57
504.541	9424.44
504.743	9664.05
504.946	9434.68
505.148	9688.63
505.351	9715.25
505.553	9877.04
505.756	9897.52
505.958	9764.4
506.161	9844.27
506.363	9963.05
506.565	9762.35
506.768	10018.35
506.97	9952.81
507.172	10147.37
507.375	10212.91
507.577	10409.51
507.779	10176.04
507.982	10413.61
508.184	10266.15
508.386	10448.42
508.588	10577.44
508.79	10589.73
508.993	10870.3
509.195	10815.01
509.397	10913.31
509.599	10892.83
509.801	10937.89
510.003	11175.45
510.205	11263.51
510.407	10946.08
510.609	11138.59
510.811	11488.79
511.013	11154.97
511.215	11370.01
511.417	11714.07
511.618	11785.75
511.82	11728.4
512.022	11814.42
512.224	11892.24
512.426	11894.29
512.627	11986.45
512.829	12142.09
513.031	12199.43
513.233	12512.77
513.434	12221.96
513.636	12428.81
513.838	12555.78
514.039	12434.95
514.241	12576.26
514.442	13016.57
514.644	12932.61
514.845	12766.72
515.047	13020.67
515.248	13241.85
515.45	13204.99
515.651	13446.65
515.853	13751.8
516.054	13784.56
516.256	13782.51
516.457	13850.1
516.658	13800.95
516.86	14052.85
517.061	14237.16
517.262	14206.44
517.463	14575.08
517.665	14726.63
517.866	14423.53
518.067	14597.61
518.268	14835.17
518.469	14738.92
518.67	14829.03
518.872	14935.52
519.073	14781.92
519.274	15189.47
519.475	14919.14
519.676	15320.54
519.877	15115.74
520.078	15365.59
520.279	15222.24
520.48	15799.76
520.681	15857.11
520.881	15879.63
521.082	15652.31
521.283	16084.43
521.484	15945.17
521.685	15963.6
521.886	15941.07
522.086	16192.97
522.287	16348.62
522.488	16641.48
522.689	16326.09
522.889	16635.34
523.09	16831.94
523.291	16926.15
523.491	16983.49
523.692	17149.38
523.892	16997.83
524.093	17472.95
524.294	17192.38
524.494	17399.23
524.695	17253.82
524.895	17391.04
525.096	17425.85
525.296	17620.41
525.496	17733.05
525.697	17997.23
525.897	17796.53
526.098	18052.53
526.298	17708.47
526.498	18275.76
526.699	18128.3
526.899	18505.13
527.099	18265.52
527.299	18539.95
527.499	18437.55
527.7	18486.7
527.9	18283.95
528.1	18757.03
528.3	18458.03
528.5	18978.21
528.7	18998.69
528.9	18734.5
529.1	18939.3
529.3	19295.65
529.5	18947.49
529.7	19422.62
529.9	19170.72
530.1	19627.42
530.3	19197.34
530.5	19813.78
530.7	19248.54
530.9	19250.59
531.1	19318.17
531.3	20014.48
531.499	19752.34
531.699	20051.35
531.899	19901.85
532.099	20065.68
532.298	20037.01
532.498	20321.68
532.698	20630.92
532.897	20551.05
533.097	20419.98
533.297	20753.8
533.496	20831.62
533.696	20817.29
533.895	20630.92
534.095	21278.08
534.294	20735.37
534.494	20772.23
534.693	20583.82
534.893	20944.26
535.092	21210.5
535.292	21794.17
535.491	21443.97
535.69	22050.16
535.89	21630.33
536.089	21730.68
536.288	21763.45
536.488	21890.42
536.687	21785.98
536.886	21947.77
537.085	21863.8
537.285	22205.81
537.484	22101.36
537.683	22216.05
537.882	21753.21
538.081	22857.06
538.28	22410.61
538.479	22422.89
538.678	22590.83
538.877	23092.58
539.076	22912.36
539.275	22906.22
539.474	22730.09
539.673	23582.05
539.872	22949.22
540.071	23522.65
540.27	23250.27
540.469	23289.19
540.668	23051.62
540.867	23758.17
541.065	23311.71
541.264	23594.33
541.463	23491.93
541.662	23792.99
541.861	24091.99
542.059	23981.4
542.258	24362.32
542.457	24001.88
542.655	24014.17
542.854	24546.64
543.052	23934.3
543.251	24520.01
543.45	24280.4
543.648	24581.45
543.847	24505.68
544.045	24859.98
544.244	25013.58
544.442	25187.65
544.641	24925.51
544.839	25386.31
545.037	24939.85
545.236	25120.07
545.434	24784.2
545.632	25355.59
545.831	25187.65
546.029	25763.13
546.227	25191.75
546.426	26178.87
546.624	25529.66
546.822	25939.26
547.02	26012.98
547.218	26623.28
547.417	25998.65
547.615	26494.26
547.813	26205.49
548.011	26441.01
548.209	26508.59
548.407	26414.39
548.605	26582.32
548.803	27383.08
549.001	27010.34
549.199	27217.19
549.397	27157.8
549.595	27069.74
549.793	26914.09
549.991	26879.27
550.189	27049.26
550.387	27491.62
550.584	27544.86
550.782	27260.2
550.98	27217.19
551.178	28255.51
551.376	28009.75
551.573	28306.71
551.771	28208.41
551.969	27956.51
552.166	28130.58
552.364	28448.02
552.562	28380.44
552.759	28087.58
552.957	27991.32
553.154	28169.5
553.352	28159.26
553.55	28566.8
553.747	28419.35
553.945	28439.83
554.142	28736.78
554.339	29697.28
554.537	28986.63
554.734	29558.02
554.932	29226.25
555.129	29572.35
555.326	29455.62
555.524	29218.06
555.721	29740.29
555.918	29551.87
556.116	30115.07
556.313	29986.04
556.51	29574.4
556.707	30096.63
556.904	30022.91
557.102	30586.1
557.299	30399.73
557.496	30483.7
557.693	30444.79
557.89	30987.5
558.087	30577.91
558.284	31081.71
558.481	30125.31
558.678	30881.01
558.875	30639.35
559.072	30663.92
559.269	30788.85
559.466	30827.76
559.663	30524.66
559.86	31325.41
560.057	31069.42
560.254	31304.94
560.45	31818.98
560.647	31966.43
560.844	31249.64
561.041	31571.17
561.237	32048.35
561.434	32148.7
561.631	31962.33
561.828	32419.03
562.024	31853.79
562.221	32597.2
562.418	32380.12
562.614	32320.73
562.811	32824.53
563.007	33033.42
563.204	32693.46
563.4	33135.82
563.597	33141.96
563.793	33363.14
563.99	33731.78
564.186	33619.14
564.383	33111.24
564.579	33871.04
564.775	33019.09
564.972	33483.97
565.168	33875.14
565.365	33676.48
565.561	33293.51
565.757	33432.77
565.953	33088.72
566.15	33588.42
566.346	33492.17
566.542	33891.52
566.738	33793.22
566.934	33402.06
567.131	33660.1
567.327	33819.84
567.523	33332.42
567.719	33522.89
567.915	33297.61
568.111	33512.65
568.307	33058
568.503	33940.67
568.699	33846.46
568.895	34481.33
569.091	34307.26
569.287	34614.45
569.483	34321.59
569.679	34530.49
569.875	34729.14
570.07	35036.33
570.266	34890.93
570.462	34843.83
570.658	34383.03
570.854	34587.83
571.049	34974.9
571.245	35251.37
571.441	35222.7
571.636	35673.25
571.832	35284.14
572.028	35835.04
572.223	35423.4
572.419	36220.06
572.615	35730.6
572.81	36009.12
573.006	35628.2
573.201	36162.72
573.397	35898.53
573.592	36129.95
573.788	35482.79
573.983	36183.2
574.179	36498.58
574.374	36019.36
574.569	36088.99
574.765	36179.1
574.96	35515.56
575.156	36310.17
575.351	35845.28
575.546	36306.07
575.741	36193.44
575.937	36717.72
576.132	35902.63
576.327	36445.34
576.522	36252.83
576.718	36152.48
576.913	36760.72
577.108	36609.17
577.303	36803.73
577.498	37192.85
577.693	36865.17
577.888	36988.05
578.083	36482.2
578.278	36920.47
578.473	36357.27
578.668	37035.15
578.863	36545.69
579.058	37551.24
579.253	36895.89
579.448	36979.86
579.643	37014.67
579.838	38272.12
580.033	38235.26
580.227	38007.94
580.422	37213.33
580.617	37958.79
580.812	37407.88
581.006	37319.82
581.201	37876.87
581.396	38077.57
581.591	37493.9
581.785	37352.59
581.98	37522.57
582.175	38003.84
582.369	38122.62
582.564	38165.63
582.758	38980.72
582.953	38503.55
583.147	38425.72
583.342	39029.87
583.536	38321.28
583.731	39081.07
583.925	38397.05
584.12	39023.73
584.314	38343.8
584.509	38464.63
584.703	38423.67
584.897	38960.24
585.092	39216.24
585.286	39044.21
585.48	38857.84
585.674	38689.91
585.869	38896.76
586.063	38954.1
586.257	38620.28
586.451	39005.3
586.646	38960.24
586.84	39036.02
587.034	38470.78
587.228	39537.77
587.422	39068.78
587.616	39709.8
587.81	39672.94
588.004	40078.43
588.198	39287.92
588.392	39478.38
588.586	38382.72
588.78	39472.23
588.974	39638.12
589.168	39384.17
589.362	39142.51
589.556	39439.47
589.75	39230.57
589.944	39244.91
590.137	39136.37
590.331	39345.26
590.525	39109.74
590.719	40078.43
590.913	39320.68
591.106	39887.97
591.3	39691.37
591.494	40139.87
591.687	39609.45
591.881	40051.81
592.075	39206
592.268	39873.64
592.462	40057.95
592.655	39636.07
592.849	40469.6
593.043	40555.61
593.236	40072.29
593.43	40260.7
593.623	40496.22
593.817	41157.71
594.01	40635.48
594.203	40727.64
594.397	40762.45
594.59	40842.33
594.784	40516.7
594.977	40539.23
595.17	40873.05
595.364	41245.78
595.557	40840.28
595.75	41583.69
595.943	40971.35
596.137	41813.06
596.33	41057.36
596.523	42296.38
596.716	41102.42
596.909	41727.05
597.102	41184.34
597.296	41655.37
597.489	41016.4
597.682	41323.6
597.875	41681.99
598.068	41124.95
598.261	40897.62
598.454	41405.52
598.647	41274.45
598.84	42271.81
599.033	41587.79
599.226	42355.77
599.419	41374.8
599.611	41970.76
599.804	41485.39
599.997	41399.37
600.19	41106.51
600.383	41706.57
600.576	41387.09
600.768	41421.9
600.961	40758.36
601.154	41778.25
601.347	40985.68
601.539	42120.26
601.732	42032.2
601.925	41880.65
602.117	41303.12
602.31	42630.2
602.502	42265.66
602.695	42355.77
602.888	42634.3
603.08	42814.52
603.273	42964.02
603.465	43166.77
603.658	42542.14
603.85	42708.03
604.043	42820.66
604.235	43330.61
604.427	43015.22
604.62	43021.36
604.812	42837.05
605.004	42814.52
605.197	42437.69
605.389	42282.05
605.581	42280
605.774	42320.96
605.966	41557.07
606.158	42386.49
606.35	41446.48
606.543	42791.99
606.735	42388.54
606.927	42925.11
607.119	43207.73
607.311	43621.42
607.503	43396.14
607.695	43183.15
607.887	42585.15
608.079	43594.8
608.271	42798.14
608.463	43949.09
608.655	43459.63
608.847	43799.59
609.039	43136.05
609.231	43228.21
609.423	43015.22
609.615	43164.72
609.807	43134
609.999	43492.4
610.191	43533.36
610.382	43760.68
610.574	43324.46
610.766	43379.76
610.958	43381.81
611.15	43664.43
611.341	43168.82
611.533	43670.57
611.725	43107.38
611.916	43371.57
612.108	42875.96
612.3	42591.29
612.491	42951.73
612.683	43605.04
612.874	42884.15
613.066	43701.29
613.257	42916.92
613.449	44200.99
613.64	43697.19
613.832	43322.42
614.023	43260.98
614.215	43402.29
614.406	43940.9
614.598	43691.05
614.789	43209.78
614.98	44086.31
615.172	43318.32
615.363	43559.98
615.554	43834.41
615.746	44053.54
615.937	43351.09
616.128	43559.98
616.319	43244.59
616.511	43852.84
616.702	43097.14
616.893	43203.63
617.084	43555.88
617.275	43697.19
617.466	43404.33
617.658	44010.53
617.849	43543.6
618.04	43682.86
618.231	43852.84
618.422	43977.77
618.613	43945
618.804	43697.19
618.995	43406.38
619.186	43953.19
619.377	43402.29
619.568	44549.15
619.758	44002.34
619.949	44907.54
620.14	44045.35
620.331	44819.48
620.522	44547.1
620.713	45145.11
620.903	44463.13
621.094	45192.21
621.285	44575.77
621.476	45558.8
621.666	44968.98
621.857	45374.48
622.048	44903.45
622.238	45712.4
622.429	46062.6
622.62	46144.52
622.81	46691.32
623.001	46681.08
623.191	46887.93
623.382	47401.97
623.572	47105.01
623.763	47078.39
623.953	46283.78
624.144	47948.78
624.334	47533.04
624.525	48178.15
624.715	47143.93
624.905	48210.92
625.096	47608.81
625.286	47490.03
625.477	48102.37
625.667	48899.03
625.857	48827.36
626.047	48901.08
626.238	48149.48
626.428	49204.18
626.618	48233.44
626.808	49259.48
626.999	49173.46
627.189	49759.18
627.379	49687.5
627.569	49865.68
627.759	49474.51
627.949	49943.5
628.139	49701.84
628.329	49732.56
628.519	49748.94
628.709	50156.49
628.899	49329.11
629.089	50949.05
629.279	49673.17
629.469	50643.9
629.659	50066.38
629.849	50019.27
630.039	49904.59
630.229	49982.41
630.419	49707.98
630.609	50037.71
630.798	50392
630.988	50244.55
631.178	50152.39
631.368	50873.28
631.557	50357.19
631.747	51684.27
631.937	50176.97
632.127	50908.09
632.316	49736.65
632.506	50641.86
632.696	50314.18
632.885	50430.92
633.075	50166.73
633.264	50318.28
633.454	49548.24
633.643	50414.53
633.833	50193.35
634.022	51323.83
634.212	50351.04
634.401	51100.6
634.591	51143.61
634.78	51176.38
634.97	50553.79
635.159	51178.42
635.348	50488.26
635.538	50355.14
635.727	50666.43
635.916	50439.11
636.106	49654.74
636.295	49236.95
636.484	49046.49
636.674	50111.43
636.863	49787.85
637.052	50385.86
637.241	50437.06
637.43	50926.52
637.619	50336.71
637.809	50693.06
637.998	50865.08
638.187	50492.35
638.376	49382.36
638.565	50228.17
638.754	49703.89
638.943	49699.79
639.132	49337.3
639.321	50039.75
639.51	49406.93
639.699	49355.73
639.888	49083.35
640.077	50275.27
640.266	49294.29
640.455	49497.04
640.643	48856.03
640.832	49955.79
641.021	48878.56
641.21	49658.83
641.399	48581.6
641.587	49644.5
641.776	49712.08
641.965	49533.91
642.154	49279.96
642.342	49079.26
642.531	48462.82
642.72	48475.11
642.908	48471.01
643.097	48411.62
643.286	48913.37
643.474	48948.19
643.663	48651.23
643.851	49161.17
644.04	48212.97
644.228	48677.85
644.417	48098.28
644.605	48937.95
644.794	48192.49
644.982	48923.61
645.171	48268.26
645.359	48380.9
645.547	47948.78
645.736	48507.87
645.924	47858.67
646.112	48249.83
646.301	48610.27
646.489	48135.14
646.677	48503.78
646.866	48585.7
647.054	47907.82
647.242	48311.27
647.43	48055.27
647.618	48929.75
647.807	48780.25
647.995	49001.43
648.183	48360.42
648.371	48268.26
648.559	47709.16
648.747	47995.88
648.935	47709.16
649.123	47877.1
649.311	46982.14
649.499	47944.68
649.687	47602.67
649.875	48114.66
650.063	47631.34
650.251	47778.8
650.439	47555.57
650.627	48182.25
650.815	47823.85
651.003	48548.83
651.191	47102.97
651.378	47373.3
651.566	46728.19
651.754	47729.64
651.942	47447.02
652.13	47723.5
652.317	46951.42
652.505	47285.24
652.693	46842.87
652.88	47287.28
653.068	47588.33
653.256	47795.18
653.443	47395.83
653.631	47698.93
653.819	47176.69
654.006	48319.46
654.194	47176.69
654.381	48100.33
654.569	47471.6
654.756	47725.55
654.944	46926.84
655.131	47668.21
655.319	47320.05
655.506	47164.41
655.693	46824.44
655.881	47301.62
656.068	47266.8
656.256	48196.58
656.443	47680.49
656.63	47838.19
656.818	47457.26
657.005	48516.06
657.192	47688.69
657.379	48118.76
657.567	47584.24
657.754	47967.21
657.941	47578.09
658.128	47754.22
658.315	47537.14
658.502	47836.14
658.69	46705.66
658.877	47668.21
659.064	46423.04
659.251	47786.99
659.438	47440.88
659.625	48366.56
659.812	47969.26
659.999	48739.29
660.186	48223.21
660.373	47733.74
660.56	47526.9
660.747	46504.96
660.934	47229.94
661.121	47283.19
661.308	46988.28
661.494	47117.3
661.681	47150.07
661.868	47123.45
662.055	46588.93
662.242	47713.26
662.428	46734.33
662.615	47318
662.802	46756.86
662.989	47852.52
663.175	47320.05
663.362	48204.77
663.549	47096.82
663.735	47188.98
663.922	47326.19
664.109	47279.09
664.295	47068.15
664.482	47209.46
664.668	46937.08
664.855	47408.11
665.041	46539.77
665.228	47361.01
665.414	46179.33
665.601	46836.73
665.787	46140.42
665.974	46605.31
666.16	46375.94
666.347	47008.76
666.533	46115.85
666.719	46965.75
666.906	46283.78
667.092	46728.19
667.278	46771.2
667.465	47043.58
667.651	45865.99
667.837	47141.88
668.023	46951.42
668.21	46955.51
668.396	46251.01
668.582	47369.2
668.768	46840.83
668.954	47068.15
669.14	45997.06
669.327	45548.56
669.513	45749.26
669.699	46267.39
669.885	46167.04
670.071	47055.86
670.257	46654.46
670.443	47105.01
670.629	46246.92
670.815	46541.82
671.001	45792.27
671.187	46535.68
671.373	45458.45
671.559	46068.74
671.744	45337.62
671.93	45509.65
672.116	45947.91
672.302	46265.35
672.488	45331.47
672.674	46324.74
672.859	45196.31
673.045	46654.46
673.231	45517.84
673.417	46277.63
673.602	46115.85
673.788	46507.01
673.974	46468.1
674.159	46312.45
674.345	46263.3
674.531	46246.92
674.716	46001.16
674.902	45868.04
675.087	44917.78
675.273	46052.36
675.459	45480.97
675.644	45614.09
675.83	45317.14
676.015	46334.98
676.2	45911.05
676.386	45964.3
676.571	45806.6
676.757	46298.11
676.942	46103.56
677.128	47498.22
677.313	46152.71
677.498	47758.32
677.684	46785.53
677.869	46906.36
678.054	46275.59
678.24	46076.93
678.425	45245.46
678.61	45874.18
678.795	45018.13
678.98	45810.7
679.166	44696.6
679.351	45892.62
679.536	44925.98
679.721	45816.84
679.906	44993.56
680.091	45544.46
680.276	45607.95
680.461	45739.02
680.647	45298.71
680.832	46134.28
681.017	45216.79
681.202	45286.42
681.387	45372.43
681.572	45888.52
681.756	45042.71
681.941	45341.71
682.126	45171.73
682.311	45579.28
682.496	44348.45
682.681	44483.61
682.866	44497.95
683.051	44710.94
683.235	44407.84
683.42	45061.14
683.605	44727.32
683.79	44983.32
683.974	44680.22
684.159	45573.13
684.344	44870.68
684.529	45403.15
684.713	44663.84
684.898	44450.85
685.083	44344.35
685.267	44534.81
685.452	44076.07
685.636	44284.96
685.821	43365.42
686.005	43506.73
686.19	43322.42
686.375	43650.09
686.559	43748.39
686.744	44119.08
686.928	43346.99
687.112	44598.3
687.297	44217.38
687.481	44166.18
687.666	44332.06
687.85	45028.37
688.034	44592.16
688.219	45665.29
688.403	45009.94
688.587	45218.83
688.772	44831.77
688.956	44848.15
689.14	43893.8
689.324	45163.54
689.509	44401.7
689.693	44989.46
689.877	44418.08
690.061	45104.15
690.245	44252.19
690.43	44493.85
690.614	44393.5
690.798	44583.96
690.982	44157.99
691.166	45153.3
691.35	43713.58
691.534	44639.26
691.718	43713.58
691.902	44856.34
692.086	44006.44
692.27	43674.67
692.454	43142.19
692.638	43584.56
692.822	43557.93
693.006	43519.02
693.19	43555.88
693.373	43910.18
693.557	43336.75
693.741	43861.03
693.925	42961.97
694.109	43617.32
694.293	43623.47
694.476	43400.24
694.66	42628.15
694.844	43437.1
695.027	42609.72
695.211	43248.69
695.395	42816.57
695.578	43932.71
695.762	42622.01
695.946	42658.87
696.129	42019.91
696.313	42310.72
696.497	42472.51
696.68	43111.48
696.864	41903.17
697.047	42409.02
697.231	42044.48
697.414	42019.91
697.598	41657.42
697.781	42386.49
697.965	42021.96
698.148	42134.59
698.331	41481.29
698.515	42001.48
698.698	41421.9
698.881	42822.71
699.065	41743.43
699.248	42409.02
699.431	41339.98
699.615	42167.36
699.798	41653.32
699.981	41952.32
700.165	41292.88
700.348	41991.24
700.531	41137.23
700.714	41598.03
700.897	40741.98
701.08	41479.24
701.264	40649.82
701.447	41223.25
701.63	41155.66
701.813	41436.24
701.996	40574.04
702.179	41217.1
702.362	40975.44
702.545	41679.94
702.728	41989.19
702.911	41655.37
703.094	41557.07
703.277	42079.3
703.46	40758.36
703.643	40922.2
703.826	40010.85
704.009	41303.12
704.191	40326.24
704.374	39920.74
704.557	39515.24
704.74	40537.18
704.923	39773.29
705.106	40207.46
705.288	39631.98
705.471	39603.3
705.654	39990.37
705.837	39763.05
706.019	39730.28
706.202	40070.24
706.385	40092.77
706.567	40586.33
706.75	40213.6
706.932	40035.43
707.115	39179.38
707.298	39109.74
707.48	38005.89
707.663	38139.01
707.845	37606.54
708.028	38356.09
708.21	37799.04
708.393	38251.65
708.575	37553.29
708.758	38050.94
708.94	37758.08
709.123	37667.97
709.305	37418.12
709.487	38139.01
709.67	37307.53
709.852	38341.76
710.034	38368.38
710.217	38376.57
710.399	38407.29
710.581	38493.31
710.764	38026.37
710.946	38005.89
711.128	37215.37
711.31	38284.41
711.492	37643.4
711.675	37541
711.857	37479.56
712.039	37624.97
712.221	37272.72
712.403	37721.22
712.585	36750.48
712.767	37094.54
712.949	36344.99
713.131	36719.76
713.314	36072.61
713.496	36762.77
713.678	36203.68
713.86	36631.7
714.041	37110.93
714.223	37233.8
714.405	36631.7
714.587	37477.51
714.769	36248.73
714.951	36826.26
715.133	36097.18
715.315	36285.6
715.497	36183.2
715.678	36220.06
715.86	36066.46
716.042	36580.5
716.224	35777.7
716.406	36322.46
716.587	36218.01
716.769	35935.39
716.951	35648.68
717.132	35339.43
717.314	35402.92
717.496	35515.56
717.677	35341.48
717.859	35785.89
718.041	35744.93
718.222	35857.57
718.404	35277.99
718.585	35869.86
718.767	34788.53
718.948	35128.49
719.13	34735.28
719.311	34733.23
719.493	34317.5
719.674	34190.52
719.856	34393.27
720.037	34350.26
720.219	33690.82
720.4	34278.59
720.581	34067.65
720.763	34563.25
720.944	33924.29
721.125	34467
721.307	33666.24
721.488	34065.6
721.669	33852.61
721.85	34364.6
722.032	33795.27
722.213	33934.53
722.394	33539.27
722.575	33543.37
722.756	33254.6
722.938	33477.83
723.119	32758.99
723.3	32715.99
723.481	32034.01
723.662	32556.24
723.843	32062.68
724.024	32564.44
724.205	32711.89
724.386	32416.98
724.567	32072.92
724.748	32619.73
724.929	31921.37
725.11	32810.19
725.291	32675.03
725.472	32896.21
725.653	32490.71
725.834	32789.71
726.015	32195.8
726.196	32355.54
726.377	31765.73
726.557	31638.75
726.738	30792.94
726.919	31651.04
727.1	30538.99
727.281	30821.61
727.461	30106.87
727.642	30545.14
727.823	30303.48
728.004	30655.73
728.184	29603.07
728.365	30729.46
728.546	30100.73
728.726	30463.22
728.907	30170.36
729.087	30510.32
729.268	30317.81
729.449	30538.99
729.629	30387.45
729.81	30670.06
729.99	30199.03
730.171	30215.42
730.351	29895.93
730.532	29981.95
730.712	29771.01
730.893	29678.85
731.073	29355.27
731.253	29506.82
731.434	28839.18
731.614	28822.8
731.795	28300.57
731.975	29449.48
732.155	28611.86
732.336	28929.29
732.516	28671.25
732.696	29015.31
732.876	28816.65
733.057	28925.2
733.237	28419.35
733.417	28589.33
733.597	28556.56
733.778	28636.43
733.958	28245.27
734.138	28564.75
734.318	28067.1
734.498	28034.33
734.678	27344.16
734.858	27143.46
735.038	26924.33
735.218	27579.68
735.398	27098.41
735.579	26973.48
735.759	26760.49
735.939	26836.27
736.119	26182.97
736.298	26948.91
736.478	26553.65
736.658	26643.76
736.838	26178.87
737.018	26346.8
737.198	26043.7
737.378	26213.68
737.558	25894.2
737.738	26178.87
737.917	25787.71
738.097	25730.36
738.277	25488.7
738.457	25412.93
738.637	25113.93
738.816	25359.68
738.996	25541.95
739.176	25709.88
739.355	24962.38
739.535	25478.46
739.715	24755.53
739.894	24989
740.074	24853.83
740.254	25077.06
740.433	24954.18
740.613	24982.86
740.792	24886.6
740.972	24948.04
741.151	24440.14
741.331	24972.62
741.51	24612.17
741.69	24653.13
741.869	24188.24
742.049	24302.93
742.228	24180.05
742.408	23944.54
742.587	23829.85
742.766	23811.42
742.946	23410.02
743.125	23498.08
743.305	23524.7
743.484	23061.86
743.663	23070.05
743.842	23188.84
744.022	22949.22
744.201	23332.19
744.38	22725.99
744.56	22662.51
744.739	22883.69
744.918	23084.39
745.097	22812.01
745.276	22852.97
745.455	22572.4
745.635	22316.4
745.814	22216.05
745.993	22474.09
746.172	22248.82
746.351	22527.34
746.53	22644.08
746.709	22273.39
746.888	22459.76
747.067	22660.46
747.246	22074.74
747.425	22115.7
747.604	22166.9
747.783	22410.61
747.962	21863.8
748.141	22039.92
748.32	21788.02
748.499	22074.74
748.677	22201.71
748.856	22781.29
749.035	22398.32
749.214	22545.77
749.393	22297.97
749.572	22445.42
749.75	22127.99
749.929	22422.89
750.108	21900.66
750.287	22793.58
750.465	22416.75
750.644	22541.68
750.823	22166.9
751.001	22273.39
751.18	22281.58
751.359	22635.88
751.537	22121.84
751.716	22523.25
751.894	22414.7
752.073	22097.27
752.251	21820.79
752.43	21978.49
752.609	21812.6
752.787	22023.54
752.966	21745.02
753.144	22238.58
753.322	21802.36
753.501	22111.6
753.679	21532.03
753.858	22347.12
754.036	21951.86
754.215	22078.84
754.393	21908.85
754.571	22273.39
754.75	21478.78
754.928	21654.91
755.106	21579.13
755.284	21753.21
755.463	21646.71
755.641	21960.05
755.819	21702.01
755.997	21982.58
756.176	21724.54
756.354	21996.92
756.532	21253.5
756.71	21806.46
756.888	21138.82
757.066	21427.58
757.245	21491.07
757.423	21439.87
757.601	21208.45
757.779	21431.68
757.957	20891.01
758.135	21175.68
758.313	21034.37
758.491	21130.63
758.669	21042.56
758.847	20909.45
759.025	20499.85
759.203	20293.01
759.381	20157.84
759.559	20653.45
759.737	20379.02
759.915	20491.66
760.092	20004.24
760.27	20673.93
760.448	20370.83
760.626	20393.36
760.804	19723.67
760.981	19852.69
761.159	19551.64
761.337	19641.75
761.515	19391.9
761.692	19555.74
761.87	19459.48
762.048	19520.92
762.226	19332.51
762.403	19295.65
762.581	19189.15
762.759	19559.83
762.936	19215.78
763.114	18779.56
763.291	18222.51
763.469	18763.17
763.647	18140.59
763.824	18449.84
764.002	18085.3
764.179	18435.5
764.357	18210.22
764.534	17950.13
764.712	17864.12
764.889	17313.21
765.066	17206.72
765.244	17046.98
765.421	16858.56
765.599	16893.38
765.776	16758.21
765.953	16643.53
766.131	16606.66
766.308	16459.21
766.485	16383.43
766.663	16582.09
766.84	16430.54
767.017	16438.73
767.194	16156.11
767.372	16381.39
767.549	16016.85
767.726	15769.04
767.903	15748.56
768.081	15302.11
768.258	15062.5
768.435	14994.91
768.612	15216.09
768.789	14749.16
768.966	14579.17
769.143	14720.48
769.32	14448.1
769.497	14407.15
769.674	14044.65
769.851	14171.63
770.028	14048.75
770.205	13940.21
770.382	13778.42
770.559	13989.36
770.736	13465.08
770.913	13555.19
771.09	13366.78
771.267	13141.5
771.444	13247.99
771.621	13037.05
771.798	12684.8
771.975	12783.11
772.151	12604.93
772.328	12396.04
772.505	12080.65
772.682	12068.36
772.859	11892.24
773.035	11896.34
773.212	11605.52
773.389	11769.36
773.565	11226.65
773.742	11363.86
773.919	11163.16
774.096	11267.61
774.272	10860.06
774.449	10825.25
774.625	10669.6
774.802	10829.34
774.979	10516
775.155	10675.75
775.332	10401.32
775.508	10460.71
775.685	10393.13
775.861	10188.33
776.038	9928.24
776.214	10094.12
776.391	9831.98
776.567	9975.34
776.744	9700.91
776.92	9811.5
777.096	9328.18
777.273	9565.75
777.449	9381.43
777.626	9190.97
777.802	9410.1
777.978	8988.22
778.155	8851.01
778.331	8920.64
778.507	8779.33
778.683	8545.86
778.86	8578.63
779.036	8685.12
779.212	8361.54
779.388	8347.21
779.565	8361.54
779.741	8015.43
779.917	8025.67
780.093	7798.35
780.269	8056.39
780.445	7718.48
780.621	7886.41
780.797	7798.35
780.974	7609.94
781.15	7540.31
781.326	7591.51
781.502	7609.94
781.678	7312.98
781.854	7409.24
782.03	7284.31
782.206	7202.39
782.382	7210.58
782.558	7276.12
782.733	6977.11
782.909	6956.63
783.085	7036.51
783.261	6837.85
783.437	6813.28
783.613	6876.76
783.789	6932.06
783.965	6757.98
784.14	6583.9
784.316	6686.3
784.492	6485.6
784.668	6667.87
784.843	6362.72
785.019	6420.07
785.195	6286.95
785.371	6358.63
785.546	6125.16
785.722	6215.27
785.898	5944.94
786.073	6002.28
786.249	5901.93
786.424	5889.64
786.6	5719.66
786.776	5744.24
786.951	5596.78
787.127	5439.09
787.302	5367.41
787.478	5359.22
787.653	5496.43
787.829	5467.76
788.004	5117.56
788.18	5283.44
788.355	5052.02
788.531	5248.63
788.706	5244.53
788.881	5105.27
789.057	4865.66
789.232	5066.36
789.408	4855.42
789.583	4798.08
789.758	4773.5
789.934	4896.38
790.109	4734.59
790.284	4691.58
790.459	4486.78
790.635	4572.8
790.81	4388.48
790.985	4572.8
791.16	4394.63
791.336	4357.76
791.511	4210.31
791.686	4339.33
791.861	4247.17
792.036	4146.82
792.211	4193.92
792.387	4118.15
792.562	4331.14
792.737	4146.82
792.912	3997.32
793.087	3886.73
793.262	3741.32
793.437	3913.35
793.612	3896.97
793.787	3823.24
793.962	3937.93
794.137	3784.33
794.312	3720.84
794.487	3778.19
794.662	3657.36
794.837	3659.41
795.011	3813
795.186	3749.52
795.361	3544.72
795.536	3585.68
795.711	3524.24
795.886	3487.38
796.06	3462.8
796.235	3503.76
796.41	3356.31
796.585	3274.39
796.76	3251.86
796.934	3192.47
797.109	3178.13
797.284	3325.59
797.458	3315.35
797.633	3341.97
797.808	3159.7
797.982	3190.42
798.157	3192.47
798.332	3122.84
798.506	3008.15
798.681	3081.88
798.855	2963.1
799.03	3094.17
799.204	2987.67
799.379	3057.3
799.553	2897.56
799.728	2942.62
799.902	2934.42
800.077	2905.75
800.251	2934.42
800.426	2920.09
800.6	2854.55
800.775	2838.17
800.949	2899.61
801.123	2713.24
801.298	2793.11
801.472	2709.15
801.647	2743.96
801.821	2657.95
801.995	2784.92
802.169	2676.38
802.344	2709.15
802.518	2664.09
802.692	2717.34
802.867	2786.97
803.041	2616.99
803.215	2821.79
803.389	2598.56
803.563	2684.57
803.737	2733.72
803.912	2520.73
804.086	2623.13
804.26	2512.54
804.434	2348.71
804.608	2610.85
804.782	2453.15
804.956	2506.4
805.13	2479.78
805.304	2455.2
805.478	2571.93
805.652	2442.91
805.826	2496.16
806	2406.05
806.174	2360.99
806.348	2320.03
806.522	2455.2
806.696	2356.9
806.87	2461.34
807.044	2352.8
807.218	2217.64
807.392	2279.07
807.566	2262.69
807.739	2397.86
807.913	2274.98
808.087	2346.66
808.261	2324.13
808.435	2444.96
808.608	2326.18
808.782	2299.55
808.956	2258.59
809.13	2328.23
809.303	2381.47
809.477	2231.97
809.651	2274.98
809.824	2375.33
809.998	2291.36
810.172	2328.23
810.345	2309.79
810.519	2242.21
810.692	2317.99
810.866	2211.49
811.04	2219.68
811.213	2209.44
811.387	2242.21
811.56	2363.04
811.734	2162.34
811.907	2324.13
812.081	2303.65
812.254	2389.66
812.428	2277.03
812.601	2311.84
812.774	2295.46
812.948	2328.23
813.121	2299.55
813.295	2317.99
813.468	2315.94
813.641	2315.94
813.815	2315.94
813.988	2397.86
814.161	2324.13
814.335	2332.32
814.508	2217.64
814.681	2266.79
814.854	2256.55
815.028	2268.83
815.201	2195.11
815.374	2184.87
815.547	2258.59
815.72	2176.68
815.894	2295.46
816.067	2209.44
816.24	2236.07
816.413	2225.83
816.586	2176.68
816.759	2033.32
816.932	2148
817.105	2127.52
817.278	2203.3
817.452	2244.26
817.625	2176.68
817.798	2225.83
817.971	2090.66
818.144	2137.76
818.317	2184.87
818.49	2188.96
818.662	2135.72
818.835	2279.07
819.008	2207.4
819.181	2229.92
819.354	2174.63
819.527	2238.11
819.7	2182.82
819.873	2305.7
820.046	2199.2
820.218	2270.88
820.391	2199.2
820.564	2250.4
820.737	2137.76
820.909	2234.02
821.082	2240.16
821.255	2219.68
821.428	2162.34
821.6	2186.92
821.773	2133.67
821.946	2229.92
822.118	2074.28
822.291	2234.02
822.464	2172.58
822.636	2148
822.809	2178.72
822.982	2148
823.154	2119.33
823.327	2121.38
823.499	2205.35
823.672	2109.09
823.844	2047.65
824.017	2166.44
824.189	2021.03
824.362	2098.85
824.534	2115.24
824.707	2119.33
824.879	2039.46
825.052	2180.77
825.224	2184.87
825.396	2176.68
825.569	2148
825.741	2078.37
825.914	2258.59
826.086	2176.68
826.258	2162.34
826.431	2080.42
826.603	2203.3
826.775	2178.72
826.947	2088.61
827.12	1988.26
827.292	1998.5
827.464	1971.88
827.636	2023.08
827.809	2010.79
827.981	2066.09
828.153	2096.8
828.325	2070.18
828.497	2111.14
828.669	2039.46
828.842	2135.72
829.014	2033.32
829.186	1988.26
829.358	1955.5
829.53	2080.42
829.702	2045.61
829.874	2078.37
830.046	1996.45
830.218	2043.56
830.39	2061.99
830.562	2018.98
830.734	1930.92
830.906	2025.13
831.078	2053.8
831.25	1961.64
831.422	1996.45
831.594	2016.93
831.766	2027.17
831.937	1943.21
832.109	1898.15
832.281	1996.45
832.453	1838.76
832.625	1910.44
832.797	1969.83
832.968	1906.34
833.14	1840.81
833.312	1842.86
833.484	1795.75
833.655	1853.1
833.827	1939.11
833.999	1963.69
834.171	1777.32
834.342	1801.9
834.514	1916.58
834.686	1894.06
834.857	1885.86
835.029	1767.08
835.2	1885.86
835.372	1914.54
835.544	1793.71
835.715	1865.38
835.887	1789.61
836.058	1840.81
836.23	1902.25
836.401	1801.9
836.573	1826.47
836.744	1883.82
836.916	1816.23
837.087	1810.09
837.259	1865.38
837.43	1797.8
837.602	1805.99
837.773	1869.48
837.945	1699.5
838.116	1726.12
838.287	1824.43
838.459	1783.47
838.63	1832.62
838.801	1818.28
838.973	1717.93
839.144	1709.74
839.315	1801.9
839.487	1816.23
839.658	1861.29
839.829	1681.07
840	1769.13
840.172	1728.17
840.343	1717.93
840.514	1756.84
840.685	1695.4
840.856	1773.23
841.027	1654.44
841.199	1767.08
841.37	1748.65
841.541	1795.75
841.712	1599.15
841.883	1613.48
842.054	1703.59
842.225	1644.2
842.396	1595.05
842.567	1662.64
842.738	1728.17
842.909	1652.4
843.08	1545.9
843.251	1656.49
843.422	1513.13
843.593	1590.96
843.764	1650.35
843.935	1695.4
844.106	1484.46
844.277	1679.02
844.448	1611.44
844.619	1595.05
844.79	1562.29
844.96	1603.24
845.131	1517.23
845.302	1529.52
845.473	1572.52
845.644	1582.76
845.814	1463.98
845.985	1533.61
846.156	1562.29
846.327	1488.56
846.497	1418.93
846.668	1570.48
846.839	1439.41
847.01	1418.93
847.18	1375.92
847.351	1496.75
847.522	1363.63
847.692	1416.88
847.863	1357.49
848.033	1273.52
848.204	1390.26
848.375	1308.34
848.545	1402.54
848.716	1326.77
848.886	1357.49
849.057	1408.69
849.227	1334.96
849.398	1318.58
849.568	1291.95
849.739	1341.1
849.909	1334.96
850.08	1308.34
850.25	1218.23
850.421	1242.8
850.591	1263.28
850.761	1316.53
850.932	1275.57
851.102	1179.31
851.272	1306.29
851.443	1324.72
851.613	1285.81
851.783	1253.04
851.954	1222.32
852.124	1228.47
852.294	1242.8
852.465	1183.41
852.635	1210.03
852.805	1144.5
852.975	1140.4
853.145	1121.97
853.316	1134.26
853.486	1152.69
853.656	1236.66
853.826	1121.97
853.996	1132.21
854.166	1076.92
854.337	1054.39
854.507	1144.5
854.677	1101.49
854.847	1132.21
855.017	1205.94
855.187	1111.73
855.357	1072.82
855.527	1124.02
855.697	1103.54
855.867	1128.12
856.037	984.76
856.207	1029.81
856.377	1025.72
856.547	1046.2
856.717	1013.43
856.887	1109.68
857.057	988.85
857.227	919.22
857.397	1042.1
857.566	1111.73
857.736	968.37
857.906	929.46
858.076	843.45
858.246	976.57
858.416	960.18
858.585	911.03
858.755	980.66
858.925	947.89
859.095	917.17
859.264	958.13
859.434	990.9
859.604	951.99
859.774	898.74
859.943	884.41
860.113	925.37
860.283	898.74
860.452	890.55
860.622	1001.14
860.791	802.49
860.961	857.78
861.131	857.78
861.3	915.13
861.47	857.78
861.639	865.98
861.809	906.94
861.978	892.6
862.148	900.79
862.318	894.65
862.487	898.74
862.657	777.91
862.826	863.93
862.995	818.87
863.165	851.64
863.334	868.02
863.504	802.49
863.673	837.3
863.843	841.4
864.012	810.68
864.181	841.4
864.351	890.55
864.52	820.92
864.689	794.3
864.859	775.87
865.028	804.54
865.197	833.21
865.366	822.97
865.536	841.4
865.705	820.92
865.874	759.48
866.043	841.4
866.213	833.21
866.382	761.53
866.551	767.67
866.72	796.34
866.889	741.05
867.059	841.4
867.228	794.3
867.397	691.9
867.566	767.67
867.735	777.91
867.904	782.01
868.073	685.75
868.242	784.06
868.411	773.82
868.58	796.34
868.749	689.85
868.918	706.23
869.087	806.58
869.256	812.73
869.425	763.58
869.594	677.56
869.763	720.57
869.932	644.8
870.101	743.1
870.27	743.1
870.439	630.46
870.608	669.37
870.777	820.92
870.945	677.56
871.114	687.8
871.283	708.28
871.452	628.41
871.621	652.99
871.789	616.12
871.958	603.84
872.127	691.9
872.296	583.36
872.464	620.22
872.633	579.26
872.802	548.54
872.971	630.46
873.139	636.6
873.308	612.03
873.477	673.47
873.645	564.92
873.814	620.22
873.983	644.8
874.151	587.45
874.32	718.52
874.488	593.6
874.657	620.22
874.826	575.16
874.994	538.3
875.163	612.03
875.331	663.23
875.5	667.32
875.668	603.84
875.837	644.8
876.005	554.68
876.174	636.6
876.342	644.8
876.51	587.45
876.679	655.03
876.847	579.26
877.016	589.5
877.184	603.84
877.352	665.27
877.521	593.6
877.689	548.54
877.857	597.69
878.026	669.37
878.194	579.26
878.362	636.6
878.531	538.3
878.699	638.65
878.867	636.6
879.036	560.83
879.204	634.56
879.372	530.11
879.54	534.2
879.708	554.68
879.877	607.93
880.045	571.07
880.213	548.54
880.381	530.11
880.549	505.53
880.717	521.92
880.885	587.45
881.054	513.73
881.222	603.84
881.39	517.82
881.558	515.77
881.726	507.58
881.894	521.92
882.062	519.87
882.23	480.96
882.398	489.15
882.566	483.01
882.734	497.34
882.902	487.1
883.07	521.92
883.238	571.07
883.406	483.01
883.574	521.92
883.741	489.15
883.909	460.48
884.077	562.88
884.245	513.73
884.413	435.9
884.581	517.82
884.749	468.67
884.916	542.4
885.084	497.34
885.252	489.15
885.42	581.31
885.587	560.83
885.755	581.31
885.923	589.5
886.091	585.4
886.258	501.44
886.426	579.26
886.594	456.38
886.761	530.11
886.929	548.54
887.097	483.01
887.264	530.11
887.432	497.34
887.6	540.35
887.767	556.73
887.935	538.3
888.102	587.45
888.27	542.4
888.438	499.39
888.605	501.44
888.773	515.77
888.94	495.29
889.108	489.15
889.275	423.61
889.443	483.01
889.61	454.33
889.778	523.96
889.945	489.15
890.112	497.34
890.28	478.91
890.447	497.34
890.615	513.73
890.782	591.55
890.949	497.34
891.117	519.87
891.284	407.23
891.452	501.44
891.619	476.86
891.786	517.82
891.953	526.01
892.121	507.58
892.288	437.95
892.455	468.67
892.623	456.38
892.79	444.09
892.957	470.72
893.124	480.96
893.291	499.39
893.459	521.92
893.626	456.38
893.793	515.77
893.96	478.91
894.127	556.73
894.294	464.57
894.461	460.48
894.629	456.38
894.796	382.66
894.963	483.01
895.13	491.2
895.297	491.2
895.464	485.05
895.631	485.05
895.798	448.19
895.965	566.97
896.132	517.82
896.299	425.66
896.466	583.36
896.633	489.15
896.8	472.77
896.967	513.73
897.134	466.62
897.301	532.16
897.467	378.56
897.634	474.81
897.801	452.29
897.968	440
898.135	470.72
898.302	456.38
898.469	466.62
898.635	474.81
898.802	474.81
898.969	425.66
899.136	417.47
899.303	507.58
