Data from light_USB4E013581_00009.txt Node
Date: Wed May 08 15:04:41 EDT 2019
User: dh1006
Spectrometer: USB4E01358
Autoset integration time: false
Trigger mode: 4
Integration Time (sec): 2.925000E-2
Scans to average: 1
Electric dark correction enabled: true
Nonlinearity correction enabled: false
Boxcar width: 0
Stray light correction enabled: false
XAxis mode: Wavelengths
Stop averaging: false
Number of Pixels in Spectrum: 3648
>>>>>Begin Spectral Data<<<<<
176.727	-14.81
176.966	-14.81
177.205	-14.81
177.444	-39.38
177.683	-45.53
177.922	3.62
178.161	3.62
178.4	9.77
178.638	3.62
178.877	99.88
179.116	-20.95
179.355	60.97
179.593	-31.19
179.832	9.77
180.071	58.92
180.309	34.34
180.548	36.39
180.786	9.77
181.025	34.34
181.263	5.67
181.502	42.53
181.74	124.45
181.979	58.92
182.217	140.84
182.456	155.17
182.694	108.07
182.932	44.58
183.17	91.69
183.409	58.92
183.647	26.15
183.885	11.82
184.123	95.78
184.361	67.11
184.6	13.86
184.838	75.3
185.076	140.84
185.314	128.55
185.552	-16.86
185.79	140.84
186.028	34.34
186.266	108.07
186.503	36.39
186.741	116.26
186.979	87.59
187.217	-6.62
187.455	112.17
187.693	56.87
187.93	60.97
188.168	63.01
188.406	95.78
188.643	87.59
188.881	63.01
189.119	75.3
189.356	46.63
189.594	50.73
189.831	132.65
190.069	83.49
190.306	11.82
190.543	50.73
190.781	108.07
191.018	42.53
191.256	103.97
191.493	26.15
191.73	110.12
191.967	95.78
192.205	13.86
192.442	79.4
192.679	79.4
192.916	91.69
193.153	63.01
193.39	58.92
193.628	95.78
193.865	91.69
194.102	161.32
194.339	58.92
194.576	58.92
194.813	46.63
195.049	77.35
195.286	83.49
195.523	38.44
195.76	110.12
195.997	93.73
196.234	54.82
196.47	99.88
196.707	54.82
196.944	77.35
197.18	50.73
197.417	-6.62
197.654	93.73
197.89	101.93
198.127	120.36
198.363	99.88
198.6	93.73
198.836	7.72
199.073	112.17
199.309	60.97
199.546	132.65
199.782	42.53
200.018	87.59
200.255	48.68
200.491	73.25
200.727	67.11
200.963	85.54
201.199	58.92
201.436	75.3
201.672	71.21
201.908	50.73
202.144	83.49
202.38	99.88
202.616	93.73
202.852	169.51
203.088	91.69
203.324	112.17
203.56	75.3
203.796	77.35
204.032	77.35
204.268	42.53
204.503	85.54
204.739	81.45
204.975	124.45
205.211	83.49
205.446	103.97
205.682	103.97
205.918	83.49
206.153	122.41
206.389	34.34
206.625	60.97
206.86	60.97
207.096	108.07
207.331	5.67
207.567	132.65
207.802	-27.1
208.037	134.69
208.273	99.88
208.508	30.25
208.744	60.97
208.979	34.34
209.214	58.92
209.449	118.31
209.685	103.97
209.92	120.36
210.155	81.45
210.39	48.68
210.625	81.45
210.86	91.69
211.095	132.65
211.33	77.35
211.565	17.96
211.8	71.21
212.035	75.3
212.27	71.21
212.505	120.36
212.74	87.59
212.975	67.11
213.21	97.83
213.444	99.88
213.679	71.21
213.914	26.15
214.149	30.25
214.383	99.88
214.618	-23
214.853	46.63
215.087	126.5
215.322	71.21
215.556	91.69
215.791	79.4
216.025	85.54
216.26	63.01
216.494	67.11
216.729	112.17
216.963	73.25
217.197	67.11
217.432	65.06
217.666	42.53
217.9	95.78
218.135	63.01
218.369	181.8
218.603	136.74
218.837	144.93
219.071	50.73
219.306	108.07
219.54	89.64
219.774	63.01
220.008	50.73
220.242	67.11
220.476	103.97
220.71	79.4
220.944	110.12
221.178	103.97
221.411	167.46
221.645	60.97
221.879	-4.57
222.113	144.93
222.347	58.92
222.58	93.73
222.814	134.69
223.048	142.89
223.281	22.06
223.515	17.96
223.749	83.49
223.982	77.35
224.216	122.41
224.449	50.73
224.683	34.34
224.916	108.07
225.15	56.87
225.383	26.15
225.617	87.59
225.85	108.07
226.083	124.45
226.317	122.41
226.55	108.07
226.783	58.92
227.016	79.4
227.25	87.59
227.483	67.11
227.716	108.07
227.949	46.63
228.182	124.45
228.415	81.45
228.648	91.69
228.881	60.97
229.114	87.59
229.347	38.44
229.58	60.97
229.813	67.11
230.046	103.97
230.279	91.69
230.512	36.39
230.745	75.3
230.977	83.49
231.21	60.97
231.443	91.69
231.675	71.21
231.908	65.06
232.141	73.25
232.373	77.35
232.606	124.45
232.839	114.21
233.071	58.92
233.304	20.01
233.536	56.87
233.769	40.49
234.001	110.12
234.233	124.45
234.466	69.16
234.698	142.89
234.93	157.22
235.163	79.4
235.395	73.25
235.627	79.4
235.86	85.54
236.092	132.65
236.324	40.49
236.556	124.45
236.788	167.46
237.02	71.21
237.252	79.4
237.484	153.13
237.716	54.82
237.948	122.41
238.18	34.34
238.412	108.07
238.644	120.36
238.876	-8.66
239.108	67.11
239.34	54.82
239.571	91.69
239.803	77.35
240.035	5.67
240.267	56.87
240.498	17.96
240.73	58.92
240.962	95.78
241.193	54.82
241.425	149.03
241.656	75.3
241.888	71.21
242.119	120.36
242.351	189.99
242.582	58.92
242.814	91.69
243.045	60.97
243.277	87.59
243.508	44.58
243.739	44.58
243.971	95.78
244.202	67.11
244.433	26.15
244.664	50.73
244.896	142.89
245.127	63.01
245.358	69.16
245.589	101.93
245.82	79.4
246.051	5.67
246.282	87.59
246.513	67.11
246.744	87.59
246.975	65.06
247.206	91.69
247.437	56.87
247.668	87.59
247.899	124.45
248.129	101.93
248.36	83.49
248.591	91.69
248.822	34.34
249.052	56.87
249.283	140.84
249.514	77.35
249.744	69.16
249.975	42.53
250.206	77.35
250.436	103.97
250.667	77.35
250.897	81.45
251.128	44.58
251.358	42.53
251.589	116.26
251.819	40.49
252.049	118.31
252.28	128.55
252.51	87.59
252.74	81.45
252.971	36.39
253.201	108.07
253.431	75.3
253.661	34.34
253.891	140.84
254.121	93.73
254.352	138.79
254.582	134.69
254.812	46.63
255.042	116.26
255.272	95.78
255.502	50.73
255.732	77.35
255.962	71.21
256.192	46.63
256.421	79.4
256.651	20.01
256.881	67.11
257.111	130.6
257.341	69.16
257.57	58.92
257.8	5.67
258.03	108.07
258.259	124.45
258.489	44.58
258.719	83.49
258.948	56.87
259.178	99.88
259.407	58.92
259.637	151.08
259.866	17.96
260.096	128.55
260.325	120.36
260.555	93.73
260.784	89.64
261.013	34.34
261.243	50.73
261.472	126.5
261.701	81.45
261.931	52.77
262.16	159.27
262.389	67.11
262.618	58.92
262.847	138.79
263.076	103.97
263.305	118.31
263.535	99.88
263.764	75.3
263.993	91.69
264.222	103.97
264.451	3.62
264.679	69.16
264.908	118.31
265.137	157.22
265.366	75.3
265.595	108.07
265.824	50.73
266.053	-4.57
266.281	87.59
266.51	116.26
266.739	167.46
266.967	93.73
267.196	153.13
267.425	67.11
267.653	58.92
267.882	95.78
268.11	-2.52
268.339	85.54
268.567	136.74
268.796	142.89
269.024	83.49
269.253	110.12
269.481	26.15
269.709	116.26
269.938	124.45
270.166	79.4
270.394	52.77
270.623	87.59
270.851	75.3
271.079	122.41
271.307	40.49
271.535	52.77
271.764	75.3
271.992	112.17
272.22	52.77
272.448	181.8
272.676	103.97
272.904	118.31
273.132	140.84
273.36	83.49
273.588	132.65
273.816	157.22
274.043	149.03
274.271	11.82
274.499	65.06
274.727	83.49
274.955	116.26
275.182	28.2
275.41	71.21
275.638	116.26
275.866	36.39
276.093	134.69
276.321	60.97
276.548	91.69
276.776	50.73
277.003	54.82
277.231	52.77
277.458	91.69
277.686	101.93
277.913	60.97
278.141	71.21
278.368	26.15
278.595	122.41
278.823	124.45
279.05	140.84
279.277	108.07
279.505	99.88
279.732	103.97
279.959	40.49
280.186	128.55
280.413	69.16
280.641	38.44
280.868	116.26
281.095	20.01
281.322	132.65
281.549	60.97
281.776	185.89
282.003	17.96
282.23	83.49
282.457	116.26
282.683	146.98
282.91	95.78
283.137	122.41
283.364	71.21
283.591	116.26
283.818	91.69
284.044	48.68
284.271	126.5
284.498	91.69
284.724	153.13
284.951	40.49
285.178	38.44
285.404	28.2
285.631	67.11
285.857	112.17
286.084	126.5
286.31	91.69
286.537	77.35
286.763	99.88
286.99	58.92
287.216	108.07
287.442	108.07
287.669	116.26
287.895	73.25
288.121	103.97
288.347	77.35
288.574	155.17
288.8	181.8
289.026	116.26
289.252	99.88
289.478	91.69
289.704	83.49
289.931	79.4
290.157	83.49
290.383	116.26
290.609	17.96
290.835	128.55
291.06	99.88
291.286	46.63
291.512	116.26
291.738	128.55
291.964	77.35
292.19	99.88
292.416	110.12
292.641	44.58
292.867	83.49
293.093	87.59
293.319	67.11
293.544	38.44
293.77	24.1
293.995	136.74
294.221	42.53
294.447	118.31
294.672	17.96
294.898	56.87
295.123	116.26
295.349	132.65
295.574	91.69
295.799	140.84
296.025	101.93
296.25	101.93
296.476	120.36
296.701	142.89
296.926	73.25
297.151	38.44
297.377	46.63
297.602	95.78
297.827	42.53
298.052	75.3
298.277	75.3
298.502	5.67
298.727	112.17
298.953	124.45
299.178	118.31
299.403	149.03
299.628	116.26
299.852	101.93
300.077	67.11
300.302	101.93
300.527	124.45
300.752	99.88
300.977	93.73
301.202	130.6
301.426	81.45
301.651	79.4
301.876	93.73
302.101	63.01
302.325	114.21
302.55	79.4
302.775	71.21
302.999	124.45
303.224	120.36
303.448	67.11
303.673	91.69
303.897	157.22
304.122	118.31
304.346	126.5
304.571	120.36
304.795	83.49
305.019	118.31
305.244	9.77
305.468	50.73
305.692	106.02
305.917	11.82
306.141	95.78
306.365	134.69
306.589	95.78
306.813	179.75
307.038	142.89
307.262	56.87
307.486	65.06
307.71	54.82
307.934	50.73
308.158	128.55
308.382	58.92
308.606	99.88
308.83	144.93
309.054	95.78
309.278	167.46
309.502	126.5
309.725	75.3
309.949	89.64
310.173	128.55
310.397	106.02
310.62	71.21
310.844	91.69
311.068	75.3
311.292	67.11
311.515	15.91
311.739	149.03
311.962	67.11
312.186	79.4
312.41	60.97
312.633	91.69
312.857	87.59
313.08	87.59
313.303	134.69
313.527	138.79
313.75	116.26
313.974	108.07
314.197	52.77
314.42	79.4
314.644	32.29
314.867	126.5
315.09	130.6
315.313	83.49
315.536	83.49
315.76	108.07
315.983	87.59
316.206	42.53
316.429	103.97
316.652	87.59
316.875	120.36
317.098	34.34
317.321	116.26
317.544	81.45
317.767	75.3
317.99	93.73
318.213	85.54
318.436	50.73
318.658	169.51
318.881	128.55
319.104	58.92
319.327	149.03
319.55	67.11
319.772	99.88
319.995	108.07
320.218	67.11
320.44	97.83
320.663	118.31
320.885	108.07
321.108	75.3
321.331	69.16
321.553	99.88
321.776	85.54
321.998	67.11
322.22	144.93
322.443	110.12
322.665	93.73
322.888	93.73
323.11	63.01
323.332	144.93
323.555	87.59
323.777	157.22
323.999	120.36
324.221	126.5
324.443	83.49
324.666	58.92
324.888	34.34
325.11	75.3
325.332	118.31
325.554	75.3
325.776	124.45
325.998	128.55
326.22	83.49
326.442	124.45
326.664	116.26
326.886	116.26
327.108	69.16
327.33	138.79
327.551	67.11
327.773	108.07
327.995	83.49
328.217	103.97
328.439	67.11
328.66	63.01
328.882	101.93
329.104	169.51
329.325	87.59
329.547	22.06
329.769	124.45
329.99	75.3
330.212	124.45
330.433	173.6
330.655	34.34
330.876	132.65
331.098	67.11
331.319	124.45
331.54	54.82
331.762	116.26
331.983	63.01
332.204	128.55
332.426	79.4
332.647	126.5
332.868	108.07
333.089	26.15
333.311	173.6
333.532	173.6
333.753	36.39
333.974	140.84
334.195	38.44
334.416	126.5
334.637	34.34
334.858	149.03
335.079	93.73
335.3	44.58
335.521	159.27
335.742	93.73
335.963	110.12
336.184	128.55
336.405	140.84
336.626	93.73
336.846	71.21
337.067	140.84
337.288	83.49
337.509	63.01
337.729	116.26
337.95	58.92
338.171	101.93
338.391	126.5
338.612	85.54
338.833	136.74
339.053	134.69
339.274	42.53
339.494	50.73
339.715	159.27
339.935	108.07
340.156	116.26
340.376	93.73
340.596	110.12
340.817	60.97
341.037	167.46
341.257	134.69
341.478	128.55
341.698	108.07
341.918	87.59
342.138	38.44
342.359	116.26
342.579	124.45
342.799	153.13
343.019	110.12
343.239	93.73
343.459	58.92
343.679	165.41
343.899	99.88
344.119	85.54
344.339	116.26
344.559	134.69
344.779	44.58
344.999	134.69
345.219	140.84
345.439	134.69
345.658	136.74
345.878	81.45
346.098	79.4
346.318	136.74
346.537	54.82
346.757	144.93
346.977	85.54
347.196	126.5
347.416	99.88
347.636	112.17
347.855	103.97
348.075	124.45
348.294	112.17
348.514	97.83
348.733	99.88
348.953	165.41
349.172	91.69
349.392	140.84
349.611	83.49
349.83	118.31
350.05	73.25
350.269	83.49
350.488	79.4
350.707	99.88
350.927	108.07
351.146	120.36
351.365	108.07
351.584	30.25
351.803	63.01
352.023	112.17
352.242	130.6
352.461	153.13
352.68	116.26
352.899	101.93
353.118	97.83
353.337	106.02
353.556	52.77
353.775	44.58
353.993	44.58
354.212	108.07
354.431	128.55
354.65	112.17
354.869	85.54
355.088	144.93
355.306	106.02
355.525	83.49
355.744	124.45
355.962	58.92
356.181	75.3
356.4	42.53
356.618	50.73
356.837	120.36
357.055	128.55
357.274	112.17
357.492	124.45
357.711	116.26
357.929	67.11
358.148	118.31
358.366	142.89
358.585	157.22
358.803	140.84
359.021	83.49
359.24	177.7
359.458	103.97
359.676	124.45
359.894	103.97
360.113	67.11
360.331	110.12
360.549	89.64
360.767	87.59
360.985	63.01
361.203	110.12
361.421	85.54
361.639	118.31
361.857	91.69
362.075	140.84
362.293	132.65
362.511	126.5
362.729	103.97
362.947	79.4
363.165	126.5
363.383	95.78
363.601	128.55
363.819	34.34
364.036	58.92
364.254	103.97
364.472	116.26
364.689	144.93
364.907	146.98
365.125	91.69
365.342	108.07
365.56	130.6
365.778	208.42
365.995	136.74
366.213	132.65
366.43	126.5
366.648	149.03
366.865	198.18
367.083	42.53
367.3	126.5
367.517	91.69
367.735	95.78
367.952	85.54
368.17	130.6
368.387	136.74
368.604	122.41
368.821	114.21
369.039	116.26
369.256	91.69
369.473	165.41
369.69	142.89
369.907	106.02
370.124	95.78
370.341	75.3
370.558	99.88
370.776	101.93
370.993	101.93
371.21	91.69
371.426	71.21
371.643	132.65
371.86	124.45
372.077	46.63
372.294	85.54
372.511	116.26
372.728	124.45
372.945	128.55
373.161	30.25
373.378	140.84
373.595	99.88
373.811	122.41
374.028	124.45
374.245	126.5
374.461	108.07
374.678	177.7
374.895	67.11
375.111	157.22
375.328	161.32
375.544	91.69
375.761	124.45
375.977	157.22
376.194	157.22
376.41	157.22
376.626	165.41
376.843	130.6
377.059	87.59
377.275	122.41
377.492	50.73
377.708	163.36
377.924	157.22
378.14	91.69
378.357	128.55
378.573	140.84
378.789	126.5
379.005	91.69
379.221	108.07
379.437	173.6
379.653	140.84
379.869	206.37
380.085	198.18
380.301	118.31
380.517	79.4
380.733	110.12
380.949	95.78
381.165	151.08
381.381	75.3
381.597	99.88
381.813	157.22
382.028	206.37
382.244	118.31
382.46	91.69
382.676	259.62
382.891	206.37
383.107	136.74
383.323	126.5
383.538	91.69
383.754	157.22
383.969	165.41
384.185	218.66
384.4	132.65
384.616	112.17
384.831	136.74
385.047	171.56
385.262	183.84
385.478	175.65
385.693	159.27
385.909	169.51
386.124	263.72
386.339	69.16
386.554	155.17
386.77	171.56
386.985	198.18
387.2	189.99
387.415	214.56
387.631	177.7
387.846	161.32
388.061	233
388.276	202.28
388.491	173.6
388.706	177.7
388.921	189.99
389.136	222.76
389.351	189.99
389.566	157.22
389.781	196.13
389.996	243.24
390.211	134.69
390.426	220.71
390.641	251.43
390.855	157.22
391.07	228.9
391.285	288.29
391.5	230.95
391.714	255.52
391.929	280.1
392.144	259.62
392.358	239.14
392.573	325.15
392.788	206.37
393.002	216.61
393.217	284.2
393.431	314.91
393.646	306.72
393.86	253.48
394.075	321.06
394.289	255.52
394.504	206.37
394.718	321.06
394.933	402.98
395.147	331.3
395.361	337.44
395.576	409.12
395.79	321.06
396.004	296.48
396.218	339.49
396.432	396.83
396.647	321.06
396.861	353.83
397.075	341.54
397.289	329.25
397.503	388.64
397.717	423.46
397.931	353.83
398.145	394.79
398.359	419.36
398.573	437.79
398.787	452.13
399.001	529.95
399.215	400.93
399.429	550.43
399.643	439.84
399.857	527.9
400.07	480.8
400.284	546.34
400.498	503.33
400.712	515.62
400.925	575.01
401.139	546.34
401.353	579.1
401.566	585.25
401.78	572.96
401.994	603.68
402.207	706.08
402.421	734.75
402.634	570.91
402.848	706.08
403.061	679.45
403.275	685.6
403.488	765.47
403.702	708.12
403.915	767.52
404.128	658.97
404.342	796.19
404.555	816.67
404.768	855.58
404.982	849.43
405.195	775.71
405.408	892.44
405.621	894.49
405.835	947.74
406.048	937.5
406.261	1017.37
406.474	1017.37
406.687	925.21
406.9	1046.04
407.113	953.88
407.326	1009.18
407.539	1007.13
407.752	1158.68
407.965	1082.9
408.178	1041.94
408.391	1160.73
408.604	1076.76
408.817	1148.44
409.029	1140.25
409.242	1160.73
409.455	1179.16
409.668	1230.36
409.881	1338.9
410.093	1330.71
410.306	1312.28
410.519	1383.95
410.731	1316.37
410.944	1312.28
411.157	1273.36
411.369	1422.87
411.582	1383.95
411.794	1373.71
412.007	1500.69
412.219	1584.66
412.432	1615.37
412.644	1629.71
412.857	1619.47
413.069	1568.27
413.281	1672.72
413.494	1480.21
413.706	1672.72
413.918	1613.33
414.131	1891.85
414.343	1687.05
414.555	1824.27
414.767	1766.92
414.979	1775.12
415.192	1795.6
415.404	1936.91
415.616	1832.46
415.828	1779.21
416.04	2045.45
416.252	1863.18
416.464	1865.23
416.676	1961.48
416.888	2051.59
417.1	1992.2
417.312	1945.1
417.524	1992.2
417.736	2074.12
417.948	2088.46
418.159	2094.6
418.371	1988.11
418.583	2096.65
418.795	2117.13
419.007	2178.57
419.218	2070.02
419.43	2190.85
419.642	2270.72
419.853	2356.74
420.065	2283.01
420.276	2248.2
420.488	2328.07
420.7	2278.92
420.911	2293.25
421.123	2266.63
421.334	2405.89
421.546	2235.91
421.757	2418.18
421.969	2248.2
422.18	2405.89
422.391	2483.71
422.603	2401.79
422.814	2479.62
423.025	2424.32
423.237	2409.99
423.448	2557.44
423.659	2582.02
423.87	2592.26
424.082	2582.02
424.293	2389.51
424.504	2463.23
424.715	2526.72
424.926	2622.98
425.137	2551.3
425.348	2639.36
425.559	2551.3
425.77	2682.37
425.981	2569.73
426.192	2618.88
426.403	2725.37
426.614	2532.86
426.825	2749.95
427.036	2807.29
427.247	2500.1
427.458	2887.16
427.668	2614.78
427.879	2549.25
428.09	2704.89
428.301	2723.33
428.511	2749.95
428.722	2756.09
428.933	2778.62
429.143	2704.89
429.354	2772.48
429.565	2778.62
429.775	2876.92
429.986	2747.9
430.196	2647.55
430.407	2807.29
430.617	2606.59
430.828	2745.85
431.038	2811.39
431.249	2856.44
431.459	2762.24
431.669	2801.15
431.88	2649.6
432.09	2774.53
432.3	2850.3
432.511	2846.2
432.721	2633.22
432.931	2942.46
433.141	2715.13
433.351	2635.26
433.562	2878.97
433.772	2827.77
433.982	2934.27
434.192	2792.96
434.402	2819.58
434.612	2672.13
434.822	2856.44
435.032	2829.82
435.242	2737.66
435.452	2881.02
435.662	2655.74
435.872	2805.24
436.082	2807.29
436.292	2518.53
436.502	2708.99
436.711	2962.94
436.921	2792.96
437.131	2721.28
437.341	2584.06
437.551	2803.2
437.76	2870.78
437.97	2717.18
438.18	2706.94
438.389	2610.69
438.599	2764.29
438.808	2770.43
439.018	2780.67
439.228	2766.33
439.437	2715.13
439.647	2670.08
439.856	2692.61
440.066	2661.89
440.275	2678.27
440.484	2784.76
440.694	2680.32
440.903	2729.47
441.113	2639.36
441.322	2696.7
441.531	2682.37
441.741	2696.7
441.95	2672.13
442.159	2665.98
442.368	2663.93
442.577	2723.33
442.787	2606.59
442.996	2704.89
443.205	2684.41
443.414	2657.79
443.623	2618.88
443.832	2680.32
444.041	2600.45
444.25	2831.87
444.459	2493.95
444.668	2565.63
444.877	2582.02
445.086	2487.81
445.295	2668.03
445.504	2631.17
445.713	2582.02
445.922	2579.97
446.13	2469.38
446.339	2436.61
446.548	2360.84
446.757	2430.47
446.965	2498.05
447.174	2536.96
447.383	2340.36
447.591	2520.58
447.8	2399.75
448.009	2510.34
448.217	2459.14
448.426	2639.36
448.634	2352.64
448.843	2575.87
449.051	2377.22
449.26	2639.36
449.468	2422.27
449.677	2506.24
449.885	2590.21
450.093	2543.1
450.302	2426.37
450.51	2559.49
450.719	2516.48
450.927	2532.86
451.135	2506.24
451.343	2469.38
451.552	2508.29
451.76	2532.86
451.968	2534.91
452.176	2467.33
452.384	2479.62
452.592	2592.26
452.8	2491.91
453.009	2489.86
453.217	2577.92
453.425	2516.48
453.633	2319.88
453.841	2457.09
454.049	2434.56
454.257	2582.02
454.464	2287.11
454.672	2444.8
454.88	2604.54
455.088	2510.34
455.296	2340.36
455.504	2401.79
455.711	2389.51
455.919	2528.77
456.127	2446.85
456.335	2577.92
456.542	2555.39
456.75	2522.62
456.958	2532.86
457.165	2616.83
457.373	2516.48
457.581	2541.06
457.788	2600.45
457.996	2561.54
458.203	2592.26
458.411	2541.06
458.618	2313.73
458.826	2428.42
459.033	2622.98
459.24	2567.68
459.448	2586.11
459.655	2594.3
459.863	2592.26
460.07	2665.98
460.277	2450.95
460.484	2676.22
460.692	2514.43
460.899	2627.07
461.106	2426.37
461.313	2649.6
461.52	2594.3
461.728	2670.08
461.935	2631.17
462.142	2704.89
462.349	2539.01
462.556	2803.2
462.763	2655.74
462.97	2821.63
463.177	2491.91
463.384	2737.66
463.591	2631.17
463.798	2631.17
464.005	2731.52
464.212	2821.63
464.418	2643.46
464.625	2774.53
464.832	2819.58
465.039	2815.48
465.246	2762.24
465.452	2936.31
465.659	2745.85
465.866	2885.12
466.072	2983.42
466.279	2954.75
466.486	2821.63
466.692	2668.03
466.899	3010.04
467.105	2934.27
467.312	2819.58
467.519	2903.55
467.725	2909.69
467.931	2962.94
468.138	3016.19
468.344	3102.2
468.551	2893.31
468.757	3040.76
468.964	3196.41
469.17	3016.19
469.376	3108.34
469.583	3116.54
469.789	3237.37
469.995	3276.28
470.201	3335.67
470.408	3263.99
470.614	3397.11
470.82	3292.66
471.026	3476.98
471.232	3341.81
471.438	3206.65
471.644	3405.3
471.85	3462.64
472.056	3395.06
472.262	3556.85
472.468	3433.97
472.674	3556.85
472.88	3554.8
473.086	3706.35
473.292	3622.38
473.498	3704.3
473.704	3683.82
473.91	3732.97
474.116	3728.88
474.321	3649.01
474.527	3646.96
474.733	3849.71
474.939	3900.91
475.144	3991.02
475.35	3782.13
475.556	4019.69
475.761	4122.09
475.967	4124.14
476.173	4177.38
476.378	4189.67
476.584	4204.01
476.789	4320.74
476.995	4302.31
477.2	4191.72
477.406	4472.29
477.611	4552.16
477.817	4525.54
478.022	4507.11
478.227	4656.61
478.433	4517.35
478.638	4613.6
478.843	4738.53
479.049	4703.71
479.254	4812.25
479.459	4859.36
479.664	4728.29
479.87	5006.81
480.075	4834.78
480.28	4847.07
480.485	4978.14
480.69	4949.47
480.895	5060.06
481.1	5146.07
481.306	5199.32
481.511	5227.99
481.716	5273.05
481.921	5146.07
482.126	5297.62
482.33	5383.64
482.535	5428.69
482.74	5416.4
482.945	5486.04
483.15	5527
483.355	5428.69
483.56	5651.92
483.765	5522.9
483.969	5795.28
484.174	5518.8
484.379	5754.32
484.583	5674.45
484.788	5932.49
484.993	5750.22
485.197	5897.68
485.402	5826
485.607	5813.71
485.811	6133.19
486.016	6010.32
486.22	5895.63
486.425	6110.67
486.629	6194.63
486.834	6129.1
487.038	6104.52
487.243	6276.55
487.447	6264.26
487.652	6501.83
487.856	6317.51
488.06	6499.78
488.265	6467.01
488.469	6585.79
488.673	6409.67
488.877	6528.45
489.082	6223.3
489.286	6454.72
489.49	6514.12
489.694	6682.05
489.898	6745.54
490.102	6776.26
490.307	6690.24
490.511	6960.57
490.715	6800.83
490.919	6835.65
491.123	6809.02
491.327	7019.96
491.531	6991.29
491.735	7130.55
491.939	6958.53
492.143	7161.27
492.346	7235
492.55	7091.64
492.754	7275.96
492.958	7226.81
493.162	7212.47
493.366	7368.12
493.569	7478.71
493.773	7382.45
493.977	7251.38
494.18	7349.69
494.384	7343.54
494.588	7669.17
494.791	7425.46
494.995	7701.94
495.199	7652.79
495.402	7689.65
495.606	7558.58
495.809	7714.23
496.013	7873.97
496.216	7656.88
496.42	7865.78
496.623	7941.55
496.827	7792.05
497.03	7933.36
497.233	7849.39
497.437	8136.11
497.64	8078.76
497.843	8232.36
498.047	8226.22
498.25	8390.06
498.453	8273.32
498.656	8422.82
498.86	8291.75
499.063	8488.36
499.266	8228.27
499.469	8435.11
499.672	8439.21
499.875	8533.41
500.078	8711.59
500.281	8353.19
500.484	8590.76
500.687	8793.51
500.89	8471.97
501.093	8533.41
501.296	8748.45
501.499	8676.77
501.702	8650.15
501.905	8897.95
502.108	8627.62
502.311	9131.42
502.514	8943.01
502.716	9119.13
502.919	8992.16
503.122	9176.48
503.325	9336.22
503.527	9375.13
503.73	9321.88
503.933	9235.87
504.135	9274.78
504.338	9459.1
504.541	9399.7
504.743	9381.27
504.946	9516.44
505.148	9504.15
505.351	9612.69
505.553	9799.06
505.756	9704.85
505.958	9823.63
506.161	9923.98
506.363	10073.49
506.565	9835.92
506.768	9991.57
506.97	10118.54
507.172	10352.01
507.375	10067.34
507.577	10200.46
507.779	10169.74
507.982	10589.57
508.184	10431.88
508.386	10405.26
508.588	10374.54
508.79	10724.74
508.993	10562.95
509.195	10845.57
509.397	10767.75
509.599	10986.88
509.801	10810.75
510.003	11142.53
510.205	10917.25
510.407	11093.37
510.609	11183.48
510.811	11433.34
511.013	11601.27
511.215	11459.96
511.417	11578.74
511.618	11840.88
511.82	11607.41
512.022	11699.57
512.224	11912.56
512.426	11795.83
512.627	11750.77
512.829	11865.46
513.031	12201.33
513.233	12602.73
513.434	12416.36
513.636	12336.49
513.838	12424.55
514.039	12567.91
514.241	12363.11
514.442	12780.9
514.644	12576.1
514.845	12952.93
515.047	13213.02
515.248	13278.56
515.45	13505.88
515.651	13464.92
515.853	13292.89
516.054	13804.88
516.256	13794.64
516.457	13616.47
516.658	13481.31
516.86	13755.73
517.061	14019.92
517.262	14062.93
517.463	14349.64
517.665	14693.7
517.866	14167.38
518.067	14718.28
518.268	14734.66
518.469	14673.22
518.67	14761.29
518.872	15041.86
519.073	14943.56
519.274	15357.25
519.475	14820.68
519.676	15148.35
519.877	15101.25
520.078	15488.32
520.279	15220.03
520.48	15783.22
520.681	15559.99
520.881	15674.68
521.082	15455.55
521.283	15994.16
521.484	15879.48
521.685	15934.77
521.886	15881.53
522.086	16192.82
522.287	16491.82
522.488	16721.19
522.689	16661.8
522.889	16704.81
523.09	16858.41
523.291	16991.52
523.491	16663.85
523.692	16999.72
523.892	16893.22
524.093	16983.33
524.294	17190.18
524.494	17476.89
524.695	17198.37
524.895	17591.58
525.096	17202.46
525.296	17767.7
525.496	17952.02
525.697	17751.32
525.897	17681.69
526.098	17837.34
526.298	17741.08
526.498	17943.83
526.699	18074.9
526.899	18193.68
527.099	18179.35
527.299	18394.38
527.499	18382.09
527.7	18564.36
527.9	18339.09
528.1	18597.13
528.3	18375.95
528.5	18793.74
528.7	18705.67
528.9	18971.91
529.1	18920.71
529.3	19158.28
529.5	18906.37
529.7	19096.84
529.9	18976.01
530.1	19416.32
530.3	19447.04
530.5	19782.91
530.7	19250.43
530.9	19494.14
531.1	19344.64
531.3	19903.74
531.499	19875.06
531.699	20247.79
531.899	19780.86
532.099	19989.75
532.298	20083.96
532.498	20434.16
532.698	20235.51
532.897	20552.94
533.097	20387.06
533.297	20978.92
533.496	20804.84
533.696	20821.23
533.895	20296.95
534.095	21187.81
534.294	20624.62
534.494	21081.32
534.693	20620.52
534.893	20931.82
535.092	21157.09
535.292	21656.8
535.491	21562.59
535.69	21935.32
535.89	21243.11
536.089	21753.05
536.288	21357.79
536.488	21896.41
536.687	21916.89
536.886	21484.77
537.085	21998.81
537.285	22244.56
537.484	21880.03
537.683	22312.15
537.882	22099.16
538.081	22623.44
538.28	22576.33
538.479	22551.76
538.678	22549.71
538.877	22846.67
539.076	22723.79
539.275	23205.06
539.474	22656.21
539.673	23104.71
539.872	22809.8
540.071	23526.59
540.27	23024.84
540.469	23450.82
540.668	23057.61
540.867	23704.77
541.065	23401.67
541.264	23571.65
541.463	23456.96
541.662	23749.82
541.861	23860.41
542.059	23901.37
542.258	23958.71
542.457	24261.81
542.655	24261.81
542.854	24161.46
543.052	24151.22
543.251	24765.61
543.45	24173.75
543.648	24300.72
543.847	24368.31
544.045	24437.94
544.244	24661.17
544.442	24954.03
544.641	25048.23
544.839	25531.55
545.037	25167.02
545.236	24634.54
545.434	25040.04
545.632	25359.52
545.831	24984.75
546.029	25492.64
546.227	25263.27
546.426	25973.92
546.624	25449.64
546.822	25869.47
547.02	26023.07
547.218	26428.56
547.417	25906.33
547.615	26256.53
547.813	26213.53
548.011	26424.47
548.209	26354.84
548.407	26444.95
548.605	26815.63
548.803	27118.73
549.001	27116.68
549.199	27581.57
549.397	27180.17
549.595	27100.3
549.793	26913.93
549.991	26637.46
550.189	26956.94
550.387	27536.52
550.584	27225.22
550.782	27008.14
550.98	27253.9
551.178	27845.76
551.376	27395.21
551.573	28056.7
551.771	28341.37
551.969	28056.7
552.166	28046.46
552.364	28177.53
552.562	27819.13
552.759	28232.82
552.957	27980.92
553.154	27962.49
553.352	28083.32
553.55	28556.4
553.747	28177.53
553.945	28675.19
554.142	28658.8
554.339	29447.27
554.537	29054.06
554.734	29459.56
554.932	28957.81
555.129	29029.48
555.326	29303.91
555.524	29170.79
555.721	29312.1
555.918	29916.25
556.116	29662.31
556.313	30159.96
556.51	30114.91
556.707	29932.64
556.904	29850.72
557.102	30303.32
557.299	30151.77
557.496	30420.06
557.693	30424.15
557.89	30860.37
558.087	30377.05
558.284	30823.51
558.481	29965.41
558.678	30430.3
558.875	30360.66
559.072	30674
559.269	31171.66
559.466	31179.85
559.663	30450.77
559.86	30899.28
560.057	30940.24
560.254	31259.72
560.45	31460.42
560.647	31652.93
560.844	31050.83
561.041	31552.58
561.237	31941.7
561.434	32205.88
561.631	31929.41
561.828	32445.5
562.024	32136.25
562.221	32683.06
562.418	32148.54
562.614	32398.39
562.811	32779.32
563.007	33061.93
563.204	32283.71
563.4	32928.82
563.597	32633.91
563.793	33408.04
563.99	33360.94
564.186	33461.29
564.383	33350.7
564.579	33405.99
564.775	32898.1
564.972	33166.38
565.168	33518.63
565.365	33823.78
565.561	33010.74
565.757	33676.33
565.953	32855.09
566.15	33745.96
566.346	33178.67
566.542	33809.44
566.738	33422.38
566.934	33295.4
567.131	33543.21
567.327	33758.24
567.523	32853.04
567.719	33696.81
567.915	33207.34
568.111	33602.6
568.307	33147.95
568.503	33659.94
568.699	33772.58
568.895	34116.64
569.091	34036.77
569.287	34587.67
569.483	34223.13
569.679	34622.49
569.875	34417.69
570.07	34911.25
570.266	34638.87
570.462	35107.86
570.658	34475.03
570.854	34835.48
571.049	34722.84
571.245	35298.32
571.441	35265.55
571.636	35607.56
571.832	34995.22
572.028	35863.56
572.223	35093.52
572.419	36238.33
572.615	35222.54
572.81	35705.86
573.006	35621.9
573.201	36277.25
573.397	36056.07
573.592	36463.61
573.788	35683.33
573.983	36238.33
574.179	35957.76
574.374	35486.73
574.569	35929.09
574.765	36570.11
574.96	35697.67
575.156	36068.35
575.351	35994.63
575.546	36215.81
575.741	35990.53
575.937	36340.73
576.132	36314.11
576.327	36510.71
576.522	35978.24
576.718	36078.59
576.913	36639.74
577.108	36580.35
577.303	36516.86
577.498	37243.89
577.693	36596.73
577.888	36662.26
578.083	36305.92
578.278	37135.34
578.473	36232.19
578.668	36879.35
578.863	36305.92
579.058	37161.97
579.253	36559.87
579.448	37340.14
579.643	36869.11
579.838	37862.37
580.033	37895.14
580.227	37600.23
580.422	37063.67
580.617	37964.77
580.812	37618.67
581.006	37233.65
581.201	37755.88
581.396	37913.57
581.591	37067.76
581.785	37213.17
581.98	37610.47
582.175	38110.18
582.369	38058.98
582.564	38761.43
582.758	38501.34
582.953	38591.45
583.147	37839.85
583.342	38712.28
583.536	37993.44
583.731	38876.12
583.925	38343.65
584.12	38992.85
584.314	38278.11
584.509	38804.44
584.703	38474.72
584.897	38865.88
585.092	38695.9
585.286	38714.33
585.48	38560.73
585.674	38579.16
585.869	38976.47
586.063	38820.82
586.257	37966.82
586.451	38618.07
586.646	38509.53
586.84	38585.31
587.034	38636.51
587.228	39402.45
587.422	39042
587.616	39689.16
587.81	39654.35
588.004	39650.25
588.198	39076.82
588.392	39281.62
588.586	38505.44
588.78	39365.58
588.974	39234.51
589.168	39314.38
589.362	38908.89
589.556	39377.87
589.75	38869.97
589.944	39312.34
590.137	39228.37
590.331	39500.75
590.525	39085.01
590.719	40225.73
590.913	39320.53
591.106	39891.91
591.3	39820.23
591.494	40231.87
591.687	40076.23
591.881	40033.22
592.075	39451.6
592.268	39941.06
592.462	39736.27
592.655	39666.63
592.849	40336.32
593.043	40299.46
593.236	39807.94
593.43	39984.07
593.623	40031.17
593.817	41532.33
594.01	40207.3
594.203	40815.54
594.397	40340.42
594.59	40784.83
594.784	39955.4
594.977	40940.47
595.17	40805.3
595.364	41214.9
595.557	40623.04
595.75	41376.69
595.943	41016.25
596.137	41661.36
596.33	40975.29
596.523	42036.13
596.716	40958.9
596.909	41491.37
597.102	41175.99
597.296	41894.82
597.489	40938.42
597.682	41364.4
597.875	41200.56
598.068	41382.83
598.261	40831.93
598.454	41642.92
598.647	41296.82
598.84	42050.47
599.033	41696.17
599.226	42179.49
599.419	40934.33
599.611	41862.06
599.804	41345.97
599.997	41391.02
600.19	41348.02
600.383	42062.76
600.576	41438.13
600.768	41477.04
600.961	40954.81
601.154	41841.58
601.347	41237.43
601.539	42052.52
601.732	42005.41
601.925	42365.86
602.117	41513.9
602.31	42427.3
602.502	41845.67
602.695	42576.8
602.888	42349.47
603.08	42818.46
603.273	42728.35
603.465	42662.81
603.658	42564.51
603.85	42511.26
604.043	42994.58
604.235	42883.99
604.427	42498.97
604.62	43293.59
604.812	42406.82
605.004	42791.83
605.197	42335.14
605.389	42415.01
605.581	41597.87
605.774	41647.02
605.966	41884.58
606.158	42206.12
606.35	41485.23
606.543	42351.52
606.735	42572.7
606.927	42736.54
607.119	42900.38
607.311	43873.16
607.503	43174.8
607.695	43205.52
607.887	42546.08
608.079	42994.58
608.271	42752.92
608.463	43660.17
608.655	43561.87
608.847	43391.89
609.039	43053.97
609.231	43436.94
609.423	42896.28
609.615	43002.78
609.807	42724.25
609.999	43533.2
610.191	42912.66
610.382	43670.41
610.574	43101.08
610.766	43989.9
610.958	42873.75
611.15	43420.56
611.341	42455.97
611.533	43490.19
611.725	42251.17
611.916	43342.74
612.108	42494.88
612.3	42834.84
612.491	42800.03
612.683	43871.11
612.874	42927
613.066	43897.74
613.257	43039.64
613.449	44012.42
613.64	43391.89
613.832	42900.38
614.023	42787.74
614.215	43641.74
614.406	44075.91
614.598	43086.74
614.789	43400.08
614.98	44209.03
615.172	43559.82
615.363	43744.14
615.554	43195.28
615.746	43907.98
615.937	43307.92
616.128	43375.51
616.319	43238.29
616.511	42914.71
616.702	43277.2
616.893	43426.7
617.084	43183
617.275	43352.98
617.466	43375.51
617.658	43871.11
617.849	43793.29
618.04	43533.2
618.231	43948.94
618.422	44186.5
618.613	43860.87
618.804	43365.27
618.995	43588.49
619.186	44110.73
619.377	43404.18
619.568	44284.8
619.758	43271.06
619.949	44739.45
620.14	43828.11
620.331	44845.95
620.522	44653.44
620.713	45394.8
620.903	44524.42
621.094	45392.75
621.285	44782.46
621.476	45237.11
621.666	44989.3
621.857	44997.5
622.048	44800.89
622.238	45607.79
622.429	45783.92
622.62	46433.12
622.81	46463.84
623.001	46478.18
623.191	46531.43
623.382	47037.27
623.572	46812
623.763	47338.33
623.953	46461.79
624.144	47422.29
624.334	47125.34
624.525	48335.69
624.715	47569.75
624.905	48100.17
625.096	47473.49
625.286	47647.57
625.477	48272.2
625.667	48749.38
625.857	48608.07
626.047	49056.57
626.238	48153.42
626.428	48905.02
626.618	47897.42
626.808	49224.5
626.999	48651.07
627.189	49128.25
627.379	49695.54
627.569	49851.18
627.759	49500.98
627.949	49883.95
628.139	49429.3
628.329	49718.06
628.519	49005.37
628.709	50369.32
628.899	49486.64
629.089	50715.43
629.279	49675.06
629.469	50363.17
629.659	50105.13
629.849	49969.96
630.039	49599.28
630.229	49748.78
630.419	49328.95
630.609	49941.29
630.798	50449.19
630.988	50516.77
631.178	50158.38
631.368	50768.67
631.557	50354.98
631.747	51118.88
631.937	50721.57
632.127	50631.46
632.316	49445.68
632.506	50879.26
632.696	50037.55
632.885	50598.69
633.075	50191.15
633.264	50354.98
633.454	49394.49
633.643	50363.17
633.833	50283.3
634.022	50961.18
634.212	50311.98
634.401	51170.07
634.591	50690.85
634.78	51403.54
634.97	50252.58
635.159	51057.44
635.348	50733.86
635.538	50647.84
635.727	50377.51
635.916	50428.71
636.106	49439.54
636.295	49408.82
636.484	48851.77
636.674	50170.67
636.863	49439.54
637.052	50277.16
637.241	50002.73
637.43	51092.25
637.619	50311.98
637.809	49941.29
637.998	50455.33
638.187	50084.65
638.376	49574.71
638.565	50400.04
638.754	49705.78
638.943	50289.45
639.132	49259.32
639.321	49943.34
639.51	49369.91
639.699	49419.06
639.888	49263.42
640.077	50125.61
640.266	49232.7
640.455	49419.06
640.643	48915.26
640.832	50051.88
641.021	48687.94
641.21	49601.33
641.399	48696.13
641.587	49806.13
641.776	49085.24
641.965	49740.59
642.154	49773.36
642.342	49445.68
642.531	48079.69
642.72	48253.77
642.908	48386.89
643.097	48556.87
643.286	48608.07
643.474	48917.31
643.663	48720.7
643.851	48909.12
644.04	48227.14
644.228	48477
644.417	48298.82
644.605	48634.69
644.794	47985.48
644.982	48964.41
645.171	48167.75
645.359	48386.89
645.547	47680.34
645.736	48171.85
645.924	47653.71
646.112	48393.03
646.301	48347.97
646.489	48520
646.677	47852.37
646.866	48851.77
647.054	47946.57
647.242	48145.22
647.43	47741.77
647.618	49128.25
647.807	48909.12
647.995	48669.5
648.183	48026.44
648.371	47989.58
648.559	47713.1
648.747	48063.31
648.935	47762.25
649.123	47666
649.311	47141.72
649.499	47807.31
649.687	47387.48
649.875	48259.91
650.063	47342.42
650.251	47641.42
650.439	47702.86
650.627	47991.63
650.815	47971.15
651.003	47854.41
651.191	46863.2
651.378	47473.49
651.566	46797.66
651.754	47950.67
651.942	46975.83
652.13	47309.65
652.317	46523.23
652.505	47741.77
652.693	46758.75
652.88	47512.4
653.068	47276.89
653.256	47471.44
653.443	47731.54
653.631	47704.91
653.819	47133.53
654.006	48233.29
654.194	46670.69
654.381	47588.18
654.569	47270.74
654.756	47690.58
654.944	46488.42
655.131	46988.12
655.319	46705.5
655.506	47287.13
655.693	46664.54
655.881	47569.75
656.068	46938.97
656.256	47496.02
656.443	47614.8
656.63	48247.62
656.818	47412.05
657.005	48261.96
657.192	47516.5
657.379	48118.6
657.567	47151.96
657.754	48124.75
657.941	47475.54
658.128	47733.58
658.315	47186.78
658.502	47639.38
658.69	46953.31
658.877	47395.67
659.064	46127.98
659.251	47790.93
659.438	47373.14
659.625	47835.98
659.812	47711.06
659.999	48370.5
660.186	48028.49
660.373	47913.8
660.56	47209.3
660.747	46891.87
660.934	47219.54
661.121	47371.09
661.308	46762.85
661.494	46898.01
661.681	47506.26
661.868	47405.91
662.055	46386.02
662.242	47508.31
662.428	47014.75
662.615	47446.87
662.802	46611.3
662.989	47919.95
663.175	47201.11
663.362	47455.06
663.549	46373.73
663.735	47180.63
663.922	47006.55
664.109	47422.29
664.295	46953.31
664.482	47182.68
664.668	46461.79
664.855	47465.3
665.041	46502.75
665.228	47133.53
665.414	46273.38
665.601	46351.2
665.787	45871.98
665.974	46404.45
666.16	45898.6
666.347	46789.47
666.533	45826.92
666.719	47211.35
666.906	46709.6
667.092	46988.12
667.278	46207.85
667.465	46750.56
667.651	45630.32
667.837	46988.12
668.023	46850.91
668.21	46906.2
668.396	46377.83
668.582	47221.59
668.768	46601.06
668.954	46660.45
669.14	46181.22
669.327	45839.21
669.513	45564.78
669.699	46431.07
669.885	45847.4
670.071	46873.44
670.257	46730.08
670.443	46918.49
670.629	46125.93
670.815	46205.8
671.001	45988.71
671.187	46259.05
671.373	45691.76
671.559	45742.96
671.744	45298.55
671.93	45783.92
672.116	46011.24
672.302	45783.92
672.488	44741.5
672.674	46093.16
672.859	45513.58
673.045	46488.42
673.231	45890.41
673.417	46283.62
673.602	46127.98
673.788	46893.92
673.974	46107.5
674.159	46037.86
674.345	46199.65
674.531	45927.27
674.716	45505.39
674.902	46066.54
675.087	44858.23
675.273	45843.31
675.459	44882.81
675.644	45446
675.83	45286.26
676.015	45955.95
676.2	45595.5
676.386	45820.78
676.571	45405.04
676.757	46668.64
676.942	45886.32
677.128	47160.15
677.313	46396.26
677.498	47217.49
677.684	46355.3
677.869	46560.1
678.054	46199.65
678.24	45953.9
678.425	45421.43
678.61	45728.62
678.795	44991.35
678.98	45955.95
679.166	44485.5
679.351	45587.31
679.536	45249.4
679.721	45691.76
679.906	44800.89
680.091	45583.22
680.276	45216.63
680.461	45532.02
680.647	45120.37
680.832	46218.09
681.017	45046.65
681.202	45503.35
681.387	44993.4
681.572	45919.08
681.756	45316.98
681.941	45400.95
682.126	44962.68
682.311	45218.68
682.496	44888.95
682.681	44788.6
682.866	44606.33
683.051	44811.13
683.235	44305.28
683.42	44856.19
683.605	45089.66
683.79	44927.87
683.974	44944.25
684.159	45575.02
684.344	44774.27
684.529	45095.8
684.713	44790.65
684.898	44735.36
685.083	44301.19
685.267	44213.12
685.452	44067.72
685.636	44319.62
685.821	43555.73
686.005	43697.04
686.19	43269.01
686.375	43686.8
686.559	43795.34
686.744	43791.24
686.928	43735.95
687.112	44581.76
687.297	43871.11
687.481	44555.14
687.666	44239.75
687.85	45087.61
688.034	44659.58
688.219	45771.63
688.403	44632.96
688.587	45017.98
688.772	44172.17
688.956	44612.48
689.14	44618.62
689.324	45015.93
689.509	44673.92
689.693	45175.67
689.877	44518.27
690.061	44948.35
690.245	44272.52
690.43	44333.95
690.614	44053.38
690.798	43981.7
690.982	44166.02
691.166	45165.43
691.35	44055.43
691.534	45194.1
691.718	43385.75
691.902	44555.14
692.086	43869.07
692.27	43482
692.454	43156.37
692.638	43901.83
692.822	43535.25
693.006	43608.97
693.19	43490.19
693.373	43645.84
693.557	43449.23
693.741	44129.16
693.925	43217.81
694.109	43559.82
694.293	42980.25
694.476	43416.46
694.66	42902.42
694.844	43482
695.027	42574.75
695.211	43565.97
695.395	42763.16
695.578	43514.77
695.762	42509.21
695.946	42679.2
696.129	41960.36
696.313	42247.07
696.497	42398.62
696.68	42797.98
696.864	42281.89
697.047	42326.95
697.231	41894.82
697.414	41890.73
697.598	41694.12
697.781	42355.62
697.965	41452.46
698.148	42212.26
698.331	41212.85
698.515	42261.41
698.698	41505.71
698.881	42283.94
699.065	41628.59
699.248	42474.4
699.431	41532.33
699.615	42242.98
699.798	41579.44
699.981	41778.09
700.165	41526.19
700.348	41812.91
700.531	40975.29
700.714	41483.18
700.897	40547.26
701.08	41202.61
701.264	40358.85
701.447	41036.73
701.63	40811.45
701.813	41018.29
701.996	40061.89
702.179	41098.16
702.362	40889.27
702.545	41139.12
702.728	41610.16
702.911	41970.6
703.094	41618.35
703.277	41806.76
703.46	40784.83
703.643	41040.82
703.826	39726.03
704.009	41003.96
704.191	39756.74
704.374	39969.73
704.557	39480.27
704.74	40213.44
704.923	39648.2
705.106	40109
705.288	39424.97
705.471	39850.95
705.654	39574.48
705.837	39900.1
706.019	40006.6
706.202	39949.25
706.385	39785.42
706.567	40174.53
706.75	40047.56
706.932	39773.13
707.115	38951.89
707.298	39021.52
707.48	38570.97
707.663	38140.9
707.845	37725.16
708.028	38247.39
708.21	37725.16
708.393	38212.58
708.575	37882.85
708.758	38302.69
708.94	37733.35
709.123	37817.32
709.305	37573.61
709.487	38427.61
709.67	37755.88
709.852	38200.29
710.034	37858.28
710.217	38734.81
710.399	38116.32
710.581	38421.47
710.764	38144.99
710.946	38212.58
711.128	37106.67
711.31	37729.26
711.492	36987.89
711.675	37405.68
711.857	37225.46
712.039	37409.77
712.221	37063.67
712.403	37534.7
712.585	37114.87
712.767	37270.51
712.949	36649.98
713.131	36895.73
713.314	36056.07
713.496	36471.8
713.678	35838.98
713.86	36916.21
714.041	36807.67
714.223	36953.08
714.405	36877.3
714.587	37139.44
714.769	36238.33
714.951	36789.24
715.133	36103.17
715.315	36672.5
715.497	36234.24
715.678	36303.87
715.86	35933.19
716.042	36295.68
716.224	35777.54
716.406	36305.92
716.587	36240.38
716.769	35773.45
716.951	35570.7
717.132	35195.92
717.314	35492.87
717.496	35273.74
717.677	35027.98
717.859	36049.92
718.041	35476.49
718.222	35726.34
718.404	34780.18
718.585	35552.26
718.767	34810.9
718.948	35124.24
719.13	34565.14
719.311	34753.56
719.493	34395.16
719.674	34534.42
719.856	34173.98
720.037	34358.3
720.219	34128.93
720.4	34585.62
720.581	34216.99
720.763	34339.87
720.944	33727.52
721.125	34264.09
721.307	33563.69
721.488	33659.94
721.669	33719.33
721.85	34333.72
722.032	33995.81
722.213	33725.48
722.394	33420.33
722.575	33698.85
722.756	33127.47
722.938	33225.77
723.119	32822.32
723.3	32525.37
723.481	31929.41
723.662	32607.29
723.843	31962.18
724.024	32566.33
724.205	32420.92
724.386	32576.57
724.567	31851.59
724.748	32621.62
724.929	31798.34
725.11	32914.48
725.291	32484.41
725.472	32910.39
725.653	32314.43
725.834	32863.28
726.015	32269.37
726.196	32234.56
726.377	31857.73
726.557	31345.74
726.738	31050.83
726.919	31413.32
727.1	30704.72
727.281	30739.54
727.461	30338.14
727.642	30250.07
727.823	30252.12
728.004	30491.73
728.184	29924.45
728.365	30600.28
728.546	29727.84
728.726	30418.01
728.907	30413.91
729.087	30671.96
729.268	30123.1
729.449	30559.32
729.629	29885.54
729.81	30250.07
729.99	30237.79
730.171	29920.35
730.351	30315.61
730.532	30035.04
730.712	29770.85
730.893	29854.82
731.073	29670.5
731.253	29101.16
731.434	28820.59
731.614	28933.23
731.795	28198.01
731.975	29322.34
732.155	28494.96
732.336	28767.34
732.516	28691.57
732.696	28490.87
732.876	28882.03
733.057	28693.62
733.237	28445.81
733.417	28744.82
733.597	28437.62
733.778	28386.42
733.958	28423.29
734.138	28597.36
734.318	28056.7
734.498	27769.98
734.678	27438.21
734.858	27245.7
735.038	26784.91
735.218	27071.63
735.398	26938.51
735.579	26766.48
735.759	27016.33
735.939	26915.98
736.119	26420.37
736.298	26967.18
736.478	26457.24
736.658	26746
736.838	26227.86
737.018	26313.88
737.198	26045.59
737.378	26248.34
737.558	25672.86
737.738	25832.61
737.917	25564.32
738.097	25922.72
738.277	25492.64
738.457	25842.85
738.637	25011.37
738.816	24972.46
738.996	25070.76
739.176	25543.84
739.355	25097.38
739.535	25255.08
739.715	24904.88
739.894	25267.37
740.074	24865.96
740.254	25257.13
740.433	24892.59
740.613	25177.26
740.792	25138.34
740.972	24716.46
741.151	24444.08
741.331	24806.57
741.51	24937.64
741.69	24906.92
741.869	24067.26
742.049	24253.62
742.228	24009.91
742.408	24175.8
742.587	23712.96
742.766	23661.76
742.946	23737.53
743.125	23477.44
743.305	23186.63
743.484	23432.39
743.663	22893.77
743.842	23168.2
744.022	23092.42
744.201	23131.33
744.38	22449.36
744.56	22621.39
744.739	22967.5
744.918	23100.61
745.097	22451.41
745.276	22840.52
745.455	22211.8
745.635	22486.22
745.814	22156.5
745.993	22543.57
746.172	21839.07
746.351	22592.72
746.53	22273.24
746.709	22377.68
746.888	22678.73
747.067	22488.27
747.246	21966.04
747.425	22207.7
747.604	21808.35
747.783	22219.99
747.962	21587.17
748.141	21814.49
748.32	21714.14
748.499	21935.32
748.677	21996.76
748.856	22328.53
749.035	22514.9
749.214	22600.91
749.393	22279.38
749.572	22219.99
749.75	22056.15
749.929	22439.12
750.108	22021.34
750.287	22381.78
750.465	22205.65
750.644	22140.12
750.823	22109.4
751.001	22357.2
751.18	22400.21
751.359	22895.82
751.537	22310.1
751.716	22633.68
751.894	21988.57
752.073	22078.68
752.251	21851.35
752.43	21806.3
752.609	21613.79
752.787	22045.91
752.966	21736.67
753.144	22443.22
753.322	22013.14
753.501	21648.61
753.679	21503.2
753.858	22007
754.036	21664.99
754.215	22260.95
754.393	21929.18
754.571	21847.26
754.75	21363.94
754.928	21978.33
755.106	21746.91
755.284	21789.91
755.463	21593.31
755.641	21806.3
755.819	21671.13
755.997	21652.7
756.176	21245.16
756.354	21452
756.532	21173.48
756.71	21595.36
756.888	21241.06
757.066	21390.56
757.245	21187.81
757.423	21316.83
757.601	20964.58
757.779	21273.83
757.957	21060.84
758.135	21568.73
758.313	20962.54
758.491	21325.03
758.669	20888.81
758.847	20997.35
759.025	20407.54
759.203	20632.81
759.381	20057.33
759.559	20229.36
759.737	20067.57
759.915	20485.36
760.092	20270.32
760.27	20645.1
760.448	20178.16
760.626	20417.78
760.804	20008.18
760.981	19498.24
761.159	19537.15
761.337	19756.28
761.515	19459.33
761.692	19539.2
761.87	19617.02
762.048	19428.61
762.226	19213.57
762.403	19735.8
762.581	19223.81
762.759	19477.76
762.936	19113.22
763.114	19066.12
763.291	18736.39
763.469	18470.16
763.647	18251.02
763.824	18019.6
764.002	18052.37
764.179	18224.4
764.357	18079
764.534	18087.19
764.712	17304.86
764.889	17890.58
765.066	17032.48
765.244	17169.7
765.421	16610.6
765.599	16917.8
765.776	16469.29
765.953	16514.35
766.131	16461.1
766.308	16659.75
766.485	16567.59
766.663	16196.91
766.84	16170.29
767.017	16364.85
767.194	16055.6
767.372	16213.3
767.549	15775.03
767.726	15617.34
767.903	15729.98
768.081	15095.11
768.258	15166.78
768.435	15066.43
768.612	14820.68
768.789	15033.67
768.966	14654.79
769.143	14628.17
769.32	14429.52
769.497	14384.46
769.674	14239.05
769.851	14435.66
770.028	13929.81
770.205	13704.53
770.382	13841.75
770.559	13624.66
770.736	13608.28
770.913	13387.1
771.09	13276.51
771.267	13137.25
771.444	13157.73
771.621	13370.72
771.798	12854.63
771.975	12838.24
772.151	12385.64
772.328	12584.3
772.505	12207.47
772.682	12397.93
772.859	11777.4
773.035	12205.42
773.212	11701.62
773.389	11945.33
773.565	11367.8
773.742	11476.34
773.919	11101.57
774.096	11068.8
774.272	11120
774.449	10874.24
774.625	10757.51
774.802	10743.17
774.979	10370.44
775.155	10501.51
775.332	10380.68
775.508	10294.67
775.685	10196.36
775.861	10229.13
776.038	10085.77
776.214	10110.35
776.391	9817.49
776.567	9774.48
776.744	9604.5
776.92	9725.33
777.096	9606.55
777.273	9418.14
777.449	9258.39
777.626	9256.35
777.802	9262.49
777.978	8824.22
778.155	8783.27
778.331	8967.58
778.507	8801.7
778.683	8607.14
778.86	8721.83
779.036	8625.57
779.212	8422.82
779.388	8385.96
779.565	8312.23
779.741	8189.35
779.917	8060.33
780.093	8009.13
780.269	7923.12
780.445	7916.97
780.621	7730.61
780.797	7757.23
780.974	7458.23
781.15	7675.31
781.326	7542.2
781.502	7404.98
781.678	7390.65
781.854	7263.67
782.03	7173.56
782.206	7124.41
782.382	6952.38
782.558	7153.08
782.733	7034.3
782.909	6888.89
783.085	6866.37
783.261	6845.89
783.437	6827.46
783.613	6737.34
783.789	6649.28
783.965	6747.58
784.14	6616.51
784.316	6712.77
784.492	6331.85
784.668	6493.64
784.843	6215.11
785.019	6301.13
785.195	6239.69
785.371	6432.2
785.546	6186.44
785.722	6196.68
785.898	5944.78
786.073	5801.42
786.249	5764.56
786.424	5850.57
786.6	5694.93
786.776	5645.78
786.951	5514.71
787.127	5510.61
787.302	5477.84
787.478	5428.69
787.653	5500.37
787.829	5408.21
788.004	5236.18
788.18	5268.95
788.355	5121.5
788.531	5211.61
788.706	5088.73
788.881	5027.29
789.057	4935.13
789.232	4883.93
789.408	4918.75
789.583	4974.04
789.758	4730.34
789.934	4767.2
790.109	4705.76
790.284	4634.08
790.459	4566.5
790.635	4582.88
790.81	4539.87
790.985	4417
791.16	4267.49
791.336	4343.27
791.511	4460
791.686	4347.37
791.861	4154.86
792.036	4083.18
792.211	4253.16
792.387	4298.21
792.562	4120.04
792.737	4099.56
792.912	4070.89
793.087	3941.87
793.262	3900.91
793.437	3915.24
793.612	3778.03
793.787	3933.68
793.962	3757.55
794.137	3722.73
794.312	3755.5
794.487	3720.69
794.662	3681.78
794.837	3712.49
795.011	3775.98
795.186	3681.78
795.361	3595.76
795.536	3499.51
795.711	3556.85
795.886	3526.13
796.06	3622.38
796.235	3466.74
796.41	3343.86
796.585	3456.5
796.76	3253.75
796.934	3354.1
797.109	3311.09
797.284	3286.52
797.458	3253.75
797.633	3278.33
797.808	3214.84
797.982	3184.12
798.157	3083.77
798.332	3163.64
798.506	3335.67
798.681	3075.58
798.855	2960.89
799.03	2997.75
799.204	2960.89
799.379	3098.1
799.553	3026.43
799.728	3034.62
799.902	3085.82
800.077	2954.75
800.251	2991.61
800.426	2952.7
800.6	2815.48
800.775	2846.2
800.949	2651.65
801.123	2764.29
801.298	2795
801.472	2805.24
801.647	2752
801.821	2768.38
801.995	2655.74
802.169	2829.82
802.344	2774.53
802.518	2721.28
802.692	2688.51
802.867	2651.65
803.041	2592.26
803.215	2565.63
803.389	2559.49
803.563	2559.49
803.737	2635.26
803.912	2471.43
804.086	2625.02
804.26	2420.23
804.434	2389.51
804.608	2414.08
804.782	2594.3
804.956	2526.72
805.13	2369.03
805.304	2614.78
805.478	2526.72
805.652	2596.35
805.826	2481.67
806	2405.89
806.174	2524.67
806.348	2395.65
806.522	2436.61
806.696	2420.23
806.87	2328.07
807.044	2289.16
807.218	2278.92
807.392	2295.3
807.566	2319.88
807.739	2393.6
807.913	2430.47
808.087	2379.27
808.261	2383.36
808.435	2459.14
808.608	2184.71
808.782	2424.32
808.956	2381.32
809.13	2397.7
809.303	2328.07
809.477	2405.89
809.651	2305.54
809.824	2340.36
809.998	2299.4
810.172	2448.9
810.345	2283.01
810.519	2287.11
810.692	2266.63
810.866	2305.54
811.04	2303.49
811.213	2352.64
811.387	2235.91
811.56	2313.73
811.734	2319.88
811.907	2321.92
812.081	2283.01
812.254	2280.96
812.428	2264.58
812.601	2299.4
812.774	2172.42
812.948	2285.06
813.121	2315.78
813.295	2272.77
813.468	2303.49
813.641	2336.26
813.815	2387.46
813.988	2227.72
814.161	2270.72
814.335	2217.48
814.508	2217.48
814.681	2303.49
814.854	2229.77
815.028	2188.81
815.201	2362.88
815.374	2237.96
815.547	2190.85
815.72	2213.38
815.894	2164.23
816.067	2170.37
816.24	2244.1
816.413	2160.13
816.586	2057.74
816.759	2158.09
816.932	2180.61
817.105	2125.32
817.278	2125.32
817.452	2131.46
817.625	2151.94
817.798	2221.57
817.971	2158.09
818.144	2203.14
818.317	2147.85
818.49	2250.25
818.662	2082.31
818.835	2199.05
819.008	2211.33
819.181	2319.88
819.354	2188.81
819.527	2121.22
819.7	2031.11
819.873	2151.94
820.046	2135.56
820.218	2164.23
820.391	2100.74
820.564	2213.38
820.737	2115.08
820.909	2254.34
821.082	2176.52
821.255	2168.33
821.428	2203.14
821.6	2313.73
821.773	2092.55
821.946	2153.99
822.118	2115.08
822.291	2332.16
822.464	2086.41
822.636	2213.38
822.809	2145.8
822.982	2143.75
823.154	2121.22
823.327	2151.94
823.499	2031.11
823.672	2119.18
823.844	2096.65
824.017	2074.12
824.189	2084.36
824.362	2188.81
824.534	2053.64
824.707	2063.88
824.879	2135.56
825.052	2082.31
825.224	2117.13
825.396	2059.78
825.569	2106.89
825.741	2256.39
825.914	2162.18
826.086	2184.71
826.258	2094.6
826.431	2035.21
826.603	2131.46
826.775	2135.56
826.947	2059.78
827.12	1994.25
827.292	2123.27
827.464	1959.43
827.636	2102.79
827.809	2106.89
827.981	2119.18
828.153	2190.85
828.325	2053.64
828.497	2088.46
828.669	2008.58
828.842	2027.02
829.014	2027.02
829.186	2074.12
829.358	2020.87
829.53	2051.59
829.702	2008.58
829.874	2016.78
830.046	1967.63
830.218	1977.87
830.39	2074.12
830.562	1941
830.734	2063.88
830.906	2018.82
831.078	2008.58
831.25	1885.71
831.422	1889.8
831.594	2049.54
831.766	1994.25
831.937	1959.43
832.109	2029.06
832.281	1955.34
832.453	1863.18
832.625	1977.87
832.797	1820.17
832.968	1955.34
833.14	1820.17
833.312	1877.51
833.484	1920.52
833.655	1902.09
833.827	1840.65
833.999	1891.85
834.171	1904.14
834.342	1838.6
834.514	1764.88
834.686	1861.13
834.857	1865.23
835.029	1871.37
835.2	1748.49
835.372	1865.23
835.544	1754.64
835.715	1779.21
835.887	1803.79
836.058	1867.27
836.23	1797.64
836.401	1830.41
836.573	1854.99
836.744	1840.65
836.916	1840.65
837.087	1787.4
837.259	1852.94
837.43	1746.44
837.602	1748.49
837.773	1771.02
837.945	1721.87
838.116	1742.35
838.287	1752.59
838.459	1746.44
838.63	1746.44
838.801	1754.64
838.973	1783.31
839.144	1738.25
839.315	1705.49
839.487	1656.33
839.658	1721.87
839.829	1814.03
840	1787.4
840.172	1707.53
840.343	1848.84
840.514	1709.58
840.685	1711.63
840.856	1691.15
841.027	1869.32
841.199	1836.56
841.37	1783.31
841.541	1697.29
841.712	1766.92
841.883	1664.53
842.054	1648.14
842.225	1553.94
842.396	1685.01
842.567	1601.04
842.738	1644.05
842.909	1519.12
843.08	1652.24
843.251	1586.7
843.422	1586.7
843.593	1639.95
843.764	1582.61
843.935	1613.33
844.106	1537.55
844.277	1490.45
844.448	1533.46
844.619	1588.75
844.79	1615.37
844.96	1582.61
845.131	1588.75
845.302	1500.69
845.473	1377.81
845.644	1566.22
845.814	1629.71
845.985	1484.3
846.156	1435.15
846.327	1465.87
846.497	1502.74
846.668	1480.21
846.839	1420.82
847.01	1476.11
847.18	1400.34
847.351	1478.16
847.522	1338.9
847.692	1314.32
847.863	1340.95
848.033	1369.62
848.204	1336.85
848.375	1275.41
848.545	1386
848.716	1240.6
848.886	1334.8
849.057	1353.23
849.227	1287.7
849.398	1297.94
849.568	1304.08
849.739	1347.09
849.909	1261.08
850.08	1279.51
850.25	1213.97
850.421	1291.8
850.591	1189.4
850.761	1320.47
850.932	1254.93
851.102	1263.12
851.272	1273.36
851.443	1248.79
851.613	1238.55
851.783	1256.98
851.954	1154.58
852.124	1240.6
852.294	1164.82
852.465	1240.6
852.635	1177.11
852.805	1238.55
852.975	1261.08
853.145	1107.48
853.316	1140.25
853.486	1099.29
853.656	1205.78
853.826	1066.52
853.996	1140.25
854.166	1254.93
854.337	1197.59
854.507	1207.83
854.677	1078.81
854.847	1152.53
855.017	1109.53
855.187	1058.33
855.357	1099.29
855.527	1013.27
855.697	1103.38
855.867	1101.33
856.037	1058.33
856.207	1023.51
856.377	955.93
856.547	978.46
856.717	949.78
856.887	1017.37
857.057	1015.32
857.227	996.89
857.397	984.6
857.566	1025.56
857.736	947.74
857.906	1029.66
858.076	955.93
858.246	947.74
858.416	945.69
858.585	931.35
858.755	820.76
858.925	976.41
859.095	947.74
859.264	945.69
859.434	943.64
859.604	880.15
859.774	941.59
859.943	941.59
860.113	968.22
860.283	1025.56
860.452	894.49
860.622	871.96
860.791	906.78
860.961	984.6
861.131	874.01
861.3	935.45
861.47	863.77
861.639	882.2
861.809	792.09
861.978	980.5
862.148	847.39
862.318	839.19
862.487	931.35
862.657	898.59
862.826	849.43
862.995	806.43
863.165	845.34
863.334	806.43
863.504	814.62
863.673	890.39
863.843	837.15
864.012	824.86
864.181	878.11
864.351	773.66
864.52	773.66
864.689	796.19
864.859	867.87
865.028	742.94
865.197	828.95
865.366	808.48
865.536	839.19
865.705	736.8
865.874	828.95
866.043	788
866.213	757.28
866.382	759.32
866.551	765.47
866.72	808.48
866.889	757.28
867.059	822.81
867.228	710.17
867.397	681.5
867.566	708.12
867.735	628.25
867.904	722.46
868.073	728.6
868.242	710.17
868.411	771.61
868.58	781.85
868.749	695.84
868.918	771.61
869.087	769.56
869.256	710.17
869.425	738.84
869.594	734.75
869.763	685.6
869.932	695.84
870.101	589.34
870.27	714.27
870.439	716.32
870.608	648.73
870.777	724.51
870.945	648.73
871.114	665.12
871.283	665.12
871.452	601.63
871.621	636.45
871.789	628.25
871.958	650.78
872.127	630.3
872.296	634.4
872.464	677.41
872.633	663.07
872.802	583.2
872.971	632.35
873.139	673.31
873.308	618.01
873.477	661.02
873.645	632.35
873.814	615.97
873.983	601.63
874.151	577.05
874.32	548.38
874.488	673.31
874.657	595.49
874.826	609.82
874.994	650.78
875.163	591.39
875.331	642.59
875.5	603.68
875.668	626.21
875.837	558.62
876.005	599.58
876.174	538.14
876.342	661.02
876.51	593.44
876.679	585.25
876.847	599.58
877.016	540.19
877.184	581.15
877.352	591.39
877.521	542.24
877.689	583.2
877.857	599.58
878.026	615.97
878.194	587.29
878.362	579.1
878.531	638.49
878.699	579.1
878.867	542.24
879.036	550.43
879.204	572.96
879.372	632.35
879.54	570.91
879.708	538.14
879.877	474.66
880.045	501.28
880.213	554.53
880.381	486.94
880.549	488.99
880.717	579.1
880.885	511.52
881.054	497.18
881.222	517.66
881.39	591.39
881.558	476.7
881.726	544.29
881.894	558.62
882.062	499.23
882.23	579.1
882.398	591.39
882.566	550.43
882.734	525.86
882.902	554.53
883.07	585.25
883.238	501.28
883.406	495.14
883.574	534.05
883.741	484.9
883.909	570.91
884.077	443.94
884.245	505.38
884.413	497.18
884.581	560.67
884.749	493.09
884.916	472.61
885.084	433.7
885.252	517.66
885.42	497.18
885.587	488.99
885.755	595.49
885.923	513.57
886.091	552.48
886.258	556.57
886.426	527.9
886.594	476.7
886.761	470.56
886.929	523.81
887.097	478.75
887.264	570.91
887.432	507.42
887.6	525.86
887.767	519.71
887.935	493.09
888.102	511.52
888.27	484.9
888.438	507.42
888.605	411.17
888.773	583.2
888.94	470.56
889.108	476.7
889.275	519.71
889.443	488.99
889.61	431.65
889.778	515.62
889.945	441.89
890.112	480.8
890.28	527.9
890.447	456.22
890.615	452.13
890.782	609.82
890.949	417.31
891.117	542.24
891.284	402.98
891.452	439.84
891.619	493.09
891.786	488.99
891.953	501.28
892.121	466.46
892.288	464.42
892.455	443.94
892.623	445.98
892.79	527.9
892.957	454.18
893.124	476.7
893.291	527.9
893.459	476.7
893.626	452.13
893.793	476.7
893.96	566.81
894.127	482.85
894.294	433.7
894.461	534.05
894.629	464.42
894.796	468.51
894.963	474.66
895.13	503.33
895.297	493.09
895.464	464.42
895.631	488.99
895.798	460.32
895.965	570.91
896.132	493.09
896.299	505.38
896.466	513.57
896.633	452.13
896.8	443.94
896.967	435.74
897.134	435.74
897.301	456.22
897.467	312.87
897.634	472.61
897.801	415.27
897.968	429.6
898.135	452.13
898.302	454.18
898.469	425.5
898.635	402.98
898.802	376.35
898.969	427.55
899.136	396.83
899.303	415.27
